# The y pixel values are for SUBSTRIP256 read-out.  Subtract 10 to get
# the SUBSTRIP96 y pixel values.
# The x and y indexes are 0-based as in Python.
# Order 1 x, y, wavelength (microns) Order 2 x, y, wavelength (microns)
   4.000   82.832  2.83052    4.000   99.532      1.40909
   5.000   82.774  2.82950    5.000   99.495      1.40862
   6.000   82.715  2.82849    6.000   99.459      1.40815
   7.000   82.656  2.82748    7.000   99.423      1.40769
   8.000   82.598  2.82646    8.000   99.387      1.40722
   9.000   82.540  2.82545    9.000   99.351      1.40675
  10.000   82.482  2.82443   10.000   99.315      1.40629
  11.000   82.423  2.82341   11.000   99.279      1.40582
  12.000   82.365  2.82240   12.000   99.243      1.40535
  13.000   82.308  2.82139   13.000   99.206      1.40489
  14.000   82.250  2.82037   14.000   99.170      1.40442
  15.000   82.192  2.81936   15.000   99.134      1.40395
  16.000   82.134  2.81835   16.000   99.098      1.40349
  17.000   82.077  2.81734   17.000   99.063      1.40302
  18.000   82.020  2.81632   18.000   99.027      1.40255
  19.000   81.962  2.81531   19.000   98.991      1.40209
  20.000   81.905  2.81430   20.000   98.955      1.40162
  21.000   81.848  2.81329   21.000   98.919      1.40115
  22.000   81.791  2.81227   22.000   98.883      1.40069
  23.000   81.734  2.81126   23.000   98.847      1.40022
  24.000   81.677  2.81025   24.000   98.812      1.39975
  25.000   81.620  2.80924   25.000   98.776      1.39929
  26.000   81.564  2.80822   26.000   98.740      1.39882
  27.000   81.507  2.80721   27.000   98.704      1.39835
  28.000   81.451  2.80619   28.000   98.669      1.39789
  29.000   81.394  2.80517   29.000   98.633      1.39742
  30.000   81.338  2.80416   30.000   98.597      1.39695
  31.000   81.282  2.80315   31.000   98.562      1.39649
  32.000   81.226  2.80214   32.000   98.526      1.39602
  33.000   81.170  2.80113   33.000   98.491      1.39555
  34.000   81.114  2.80011   34.000   98.455      1.39508
  35.000   81.058  2.79910   35.000   98.420      1.39461
  36.000   81.002  2.79809   36.000   98.384      1.39415
  37.000   80.947  2.79708   37.000   98.349      1.39368
  38.000   80.891  2.79607   38.000   98.313      1.39321
  39.000   80.836  2.79505   39.000   98.278      1.39275
  40.000   80.781  2.79404   40.000   98.242      1.39228
  41.000   80.725  2.79303   41.000   98.207      1.39181
  42.000   80.670  2.79202   42.000   98.172      1.39135
  43.000   80.615  2.79101   43.000   98.136      1.39088
  44.000   80.560  2.78999   44.000   98.101      1.39042
  45.000   80.505  2.78898   45.000   98.066      1.38995
  46.000   80.450  2.78796   46.000   98.031      1.38948
  47.000   80.396  2.78695   47.000   97.996      1.38902
  48.000   80.341  2.78594   48.000   97.960      1.38855
  49.000   80.287  2.78493   49.000   97.925      1.38808
  50.000   80.232  2.78391   50.000   97.890      1.38762
  51.000   80.178  2.78290   51.000   97.855      1.38715
  52.000   80.124  2.78189   52.000   97.820      1.38668
  53.000   80.069  2.78088   53.000   97.785      1.38622
  54.000   80.015  2.77987   54.000   97.750      1.38575
  55.000   79.961  2.77886   55.000   97.715      1.38528
  56.000   79.907  2.77785   56.000   97.680      1.38482
  57.000   79.854  2.77683   57.000   97.645      1.38435
  58.000   79.800  2.77582   58.000   97.610      1.38388
  59.000   79.746  2.77481   59.000   97.576      1.38342
  60.000   79.693  2.77380   60.000   97.541      1.38295
  61.000   79.639  2.77279   61.000   97.506      1.38248
  62.000   79.586  2.77178   62.000   97.471      1.38201
  63.000   79.532  2.77077   63.000   97.436      1.38154
  64.000   79.479  2.76974   64.000   97.402      1.38108
  65.000   79.426  2.76873   65.000   97.367      1.38061
  66.000   79.373  2.76772   66.000   97.332      1.38014
  67.000   79.320  2.76671   67.000   97.298      1.37968
  68.000   79.267  2.76570   68.000   97.263      1.37921
  69.000   79.214  2.76469   69.000   97.229      1.37874
  70.000   79.162  2.76368   70.000   97.194      1.37828
  71.000   79.109  2.76267   71.000   97.160      1.37781
  72.000   79.056  2.76166   72.000   97.125      1.37734
  73.000   79.004  2.76065   73.000   97.091      1.37688
  74.000   78.952  2.75964   74.000   97.056      1.37641
  75.000   78.899  2.75863   75.000   97.022      1.37595
  76.000   78.847  2.75762   76.000   96.988      1.37548
  77.000   78.795  2.75661   77.000   96.953      1.37501
  78.000   78.743  2.75559   78.000   96.919      1.37455
  79.000   78.691  2.75458   79.000   96.885      1.37408
  80.000   78.639  2.75357   80.000   96.851      1.37361
  81.000   78.587  2.75256   81.000   96.817      1.37315
  82.000   78.535  2.75155   82.000   96.782      1.37268
  83.000   78.484  2.75053   83.000   96.748      1.37221
  84.000   78.432  2.74952   84.000   96.714      1.37175
  85.000   78.381  2.74851   85.000   96.680      1.37128
  86.000   78.329  2.74750   86.000   96.646      1.37081
  87.000   78.278  2.74649   87.000   96.612      1.37035
  88.000   78.227  2.74548   88.000   96.578      1.36988
  89.000   78.175  2.74447   89.000   96.544      1.36941
  90.000   78.124  2.74346   90.000   96.511      1.36895
  91.000   78.073  2.74245   91.000   96.477      1.36847
  92.000   78.022  2.74144   92.000   96.443      1.36801
  93.000   77.971  2.74043   93.000   96.409      1.36754
  94.000   77.921  2.73942   94.000   96.375      1.36707
  95.000   77.870  2.73841   95.000   96.342      1.36661
  96.000   77.819  2.73740   96.000   96.308      1.36614
  97.000   77.769  2.73639   97.000   96.274      1.36567
  98.000   77.718  2.73538   98.000   96.241      1.36521
  99.000   77.668  2.73437   99.000   96.207      1.36474
 100.000   77.617  2.73336  100.000   96.174      1.36428
 101.000   77.567  2.73235  101.000   96.140      1.36381
 102.000   77.517  2.73134  102.000   96.107      1.36334
 103.000   77.467  2.73032  103.000   96.073      1.36288
 104.000   77.417  2.72931  104.000   96.040      1.36241
 105.000   77.367  2.72830  105.000   96.007      1.36194
 106.000   77.317  2.72729  106.000   95.973      1.36148
 107.000   77.267  2.72628  107.000   95.940      1.36101
 108.000   77.218  2.72527  108.000   95.907      1.36054
 109.000   77.168  2.72426  109.000   95.874      1.36008
 110.000   77.118  2.72326  110.000   95.840      1.35961
 111.000   77.069  2.72225  111.000   95.807      1.35914
 112.000   77.019  2.72124  112.000   95.774      1.35868
 113.000   76.970  2.72023  113.000   95.741      1.35821
 114.000   76.921  2.71922  114.000   95.708      1.35774
 115.000   76.871  2.71821  115.000   95.675      1.35728
 116.000   76.822  2.71720  116.000   95.642      1.35681
 117.000   76.773  2.71619  117.000   95.609      1.35634
 118.000   76.724  2.71518  118.000   95.577      1.35588
 119.000   76.675  2.71417  119.000   95.544      1.35541
 120.000   76.626  2.71316  120.000   95.511      1.35494
 121.000   76.578  2.71216  121.000   95.478      1.35447
 122.000   76.529  2.71115  122.000   95.445      1.35401
 123.000   76.480  2.71013  123.000   95.413      1.35354
 124.000   76.432  2.70912  124.000   95.380      1.35307
 125.000   76.383  2.70811  125.000   95.348      1.35261
 126.000   76.335  2.70710  126.000   95.315      1.35214
 127.000   76.286  2.70609  127.000   95.282      1.35167
 128.000   76.238  2.70508  128.000   95.250      1.35121
 129.000   76.190  2.70407  129.000   95.218      1.35074
 130.000   76.142  2.70306  130.000   95.185      1.35027
 131.000   76.094  2.70206  131.000   95.153      1.34981
 132.000   76.046  2.70105  132.000   95.120      1.34934
 133.000   75.998  2.70004  133.000   95.088      1.34887
 134.000   75.950  2.69903  134.000   95.056      1.34841
 135.000   75.902  2.69802  135.000   95.024      1.34794
 136.000   75.854  2.69701  136.000   94.992      1.34747
 137.000   75.806  2.69601  137.000   94.959      1.34701
 138.000   75.759  2.69500  138.000   94.927      1.34654
 139.000   75.711  2.69399  139.000   94.895      1.34607
 140.000   75.664  2.69298  140.000   94.863      1.34561
 141.000   75.616  2.69197  141.000   94.831      1.34514
 142.000   75.569  2.69096  142.000   94.799      1.34467
 143.000   75.522  2.68996  143.000   94.768      1.34421
 144.000   75.474  2.68894  144.000   94.736      1.34374
 145.000   75.427  2.68793  145.000   94.704      1.34327
 146.000   75.380  2.68692  146.000   94.672      1.34281
 147.000   75.333  2.68591  147.000   94.641      1.34234
 148.000   75.286  2.68491  148.000   94.609      1.34187
 149.000   75.239  2.68390  149.000   94.577      1.34141
 150.000   75.192  2.68289  150.000   94.546      1.34094
 151.000   75.146  2.68188  151.000   94.514      1.34047
 152.000   75.099  2.68087  152.000   94.483      1.34000
 153.000   75.052  2.67987  153.000   94.451      1.33954
 154.000   75.006  2.67886  154.000   94.420      1.33907
 155.000   74.959  2.67785  155.000   94.388      1.33860
 156.000   74.913  2.67684  156.000   94.357      1.33814
 157.000   74.866  2.67584  157.000   94.326      1.33767
 158.000   74.820  2.67483  158.000   94.295      1.33720
 159.000   74.774  2.67382  159.000   94.263      1.33674
 160.000   74.728  2.67281  160.000   94.232      1.33627
 161.000   74.681  2.67181  161.000   94.201      1.33580
 162.000   74.635  2.67080  162.000   94.170      1.33534
 163.000   74.589  2.66979  163.000   94.139      1.33487
 164.000   74.543  2.66878  164.000   94.108      1.33440
 165.000   74.498  2.66776  165.000   94.077      1.33394
 166.000   74.452  2.66676  166.000   94.046      1.33347
 167.000   74.406  2.66575  167.000   94.016      1.33300
 168.000   74.360  2.66474  168.000   93.985      1.33254
 169.000   74.315  2.66374  169.000   93.954      1.33207
 170.000   74.269  2.66273  170.000   93.923      1.33160
 171.000   74.223  2.66172  171.000   93.893      1.33114
 172.000   74.178  2.66071  172.000   93.862      1.33067
 173.000   74.133  2.65971  173.000   93.831      1.33020
 174.000   74.087  2.65870  174.000   93.801      1.32974
 175.000   74.042  2.65769  175.000   93.770      1.32927
 176.000   73.997  2.65669  176.000   93.740      1.32881
 177.000   73.952  2.65568  177.000   93.710      1.32834
 178.000   73.906  2.65467  178.000   93.679      1.32787
 179.000   73.861  2.65367  179.000   93.649      1.32741
 180.000   73.816  2.65266  180.000   93.619      1.32694
 181.000   73.771  2.65165  181.000   93.589      1.32647
 182.000   73.727  2.65065  182.000   93.559      1.32601
 183.000   73.682  2.64964  183.000   93.528      1.32554
 184.000   73.637  2.64863  184.000   93.498      1.32507
 185.000   73.592  2.64763  185.000   93.468      1.32460
 186.000   73.548  2.64662  186.000   93.438      1.32413
 187.000   73.503  2.64561  187.000   93.409      1.32367
 188.000   73.458  2.64460  188.000   93.379      1.32320
 189.000   73.414  2.64359  189.000   93.349      1.32273
 190.000   73.369  2.64258  190.000   93.319      1.32227
 191.000   73.325  2.64158  191.000   93.289      1.32180
 192.000   73.281  2.64057  192.000   93.260      1.32134
 193.000   73.236  2.63956  193.000   93.230      1.32087
 194.000   73.192  2.63856  194.000   93.201      1.32040
 195.000   73.148  2.63755  195.000   93.171      1.31994
 196.000   73.104  2.63655  196.000   93.142      1.31947
 197.000   73.060  2.63554  197.000   93.112      1.31900
 198.000   73.016  2.63453  198.000   93.083      1.31854
 199.000   72.972  2.63353  199.000   93.054      1.31807
 200.000   72.928  2.63252  200.000   93.024      1.31760
 201.000   72.884  2.63152  201.000   92.995      1.31714
 202.000   72.841  2.63051  202.000   92.966      1.31667
 203.000   72.797  2.62950  203.000   92.937      1.31620
 204.000   72.753  2.62850  204.000   92.908      1.31574
 205.000   72.710  2.62749  205.000   92.879      1.31527
 206.000   72.666  2.62649  206.000   92.850      1.31480
 207.000   72.622  2.62548  207.000   92.821      1.31434
 208.000   72.579  2.62447  208.000   92.792      1.31387
 209.000   72.536  2.62347  209.000   92.763      1.31340
 210.000   72.492  2.62245  210.000   92.734      1.31294
 211.000   72.449  2.62145  211.000   92.706      1.31247
 212.000   72.406  2.62044  212.000   92.677      1.31200
 213.000   72.362  2.61943  213.000   92.648      1.31154
 214.000   72.319  2.61843  214.000   92.620      1.31107
 215.000   72.276  2.61742  215.000   92.591      1.31060
 216.000   72.233  2.61642  216.000   92.563      1.31014
 217.000   72.190  2.61541  217.000   92.535      1.30967
 218.000   72.147  2.61441  218.000   92.506      1.30920
 219.000   72.104  2.61340  219.000   92.478      1.30873
 220.000   72.061  2.61240  220.000   92.450      1.30827
 221.000   72.019  2.61139  221.000   92.421      1.30780
 222.000   71.976  2.61039  222.000   92.393      1.30733
 223.000   71.933  2.60938  223.000   92.365      1.30687
 224.000   71.890  2.60838  224.000   92.337      1.30640
 225.000   71.848  2.60737  225.000   92.309      1.30593
 226.000   71.805  2.60637  226.000   92.281      1.30547
 227.000   71.763  2.60536  227.000   92.253      1.30500
 228.000   71.720  2.60436  228.000   92.226      1.30453
 229.000   71.678  2.60335  229.000   92.198      1.30407
 230.000   71.636  2.60235  230.000   92.170      1.30360
 231.000   71.593  2.60134  231.000   92.143      1.30313
 232.000   71.551  2.60034  232.000   92.115      1.30267
 233.000   71.509  2.59933  233.000   92.087      1.30220
 234.000   71.467  2.59832  234.000   92.060      1.30173
 235.000   71.424  2.59731  235.000   92.033      1.30127
 236.000   71.382  2.59631  236.000   92.005      1.30080
 237.000   71.340  2.59530  237.000   91.978      1.30033
 238.000   71.298  2.59430  238.000   91.951      1.29987
 239.000   71.256  2.59329  239.000   91.923      1.29940
 240.000   71.215  2.59229  240.000   91.896      1.29894
 241.000   71.173  2.59128  241.000   91.869      1.29847
 242.000   71.131  2.59028  242.000   91.842      1.29800
 243.000   71.089  2.58927  243.000   91.815      1.29754
 244.000   71.047  2.58827  244.000   91.788      1.29707
 245.000   71.006  2.58727  245.000   91.761      1.29660
 246.000   70.964  2.58626  246.000   91.735      1.29614
 247.000   70.923  2.58526  247.000   91.708      1.29567
 248.000   70.881  2.58425  248.000   91.681      1.29520
 249.000   70.840  2.58325  249.000   91.654      1.29474
 250.000   70.798  2.58224  250.000   91.628      1.29427
 251.000   70.757  2.58124  251.000   91.601      1.29380
 252.000   70.715  2.58024  252.000   91.575      1.29334
 253.000   70.674  2.57923  253.000   91.548      1.29287
 254.000   70.633  2.57823  254.000   91.522      1.29240
 255.000   70.592  2.57722  255.000   91.496      1.29193
 256.000   70.550  2.57622  256.000   91.470      1.29147
 257.000   70.509  2.57522  257.000   91.443      1.29100
 258.000   70.468  2.57420  258.000   91.417      1.29053
 259.000   70.427  2.57320  259.000   91.391      1.29007
 260.000   70.386  2.57219  260.000   91.365      1.28960
 261.000   70.345  2.57119  261.000   91.339      1.28913
 262.000   70.304  2.57019  262.000   91.313      1.28867
 263.000   70.263  2.56918  263.000   91.288      1.28820
 264.000   70.222  2.56818  264.000   91.262      1.28773
 265.000   70.182  2.56718  265.000   91.236      1.28727
 266.000   70.141  2.56617  266.000   91.210      1.28680
 267.000   70.100  2.56517  267.000   91.185      1.28633
 268.000   70.059  2.56416  268.000   91.159      1.28587
 269.000   70.019  2.56316  269.000   91.134      1.28540
 270.000   69.978  2.56216  270.000   91.108      1.28493
 271.000   69.938  2.56115  271.000   91.083      1.28447
 272.000   69.897  2.56015  272.000   91.058      1.28400
 273.000   69.857  2.55915  273.000   91.033      1.28353
 274.000   69.816  2.55814  274.000   91.007      1.28307
 275.000   69.776  2.55714  275.000   90.982      1.28260
 276.000   69.735  2.55614  276.000   90.957      1.28213
 277.000   69.695  2.55513  277.000   90.932      1.28167
 278.000   69.655  2.55413  278.000   90.907      1.28120
 279.000   69.615  2.55313  279.000   90.882      1.28073
 280.000   69.574  2.55213  280.000   90.858      1.28027
 281.000   69.534  2.55112  281.000   90.833      1.27980
 282.000   69.494  2.55011  282.000   90.808      1.27933
 283.000   69.454  2.54911  283.000   90.784      1.27887
 284.000   69.414  2.54810  284.000   90.759      1.27840
 285.000   69.374  2.54710  285.000   90.735      1.27794
 286.000   69.334  2.54610  286.000   90.710      1.27747
 287.000   69.294  2.54509  287.000   90.686      1.27700
 288.000   69.254  2.54409  288.000   90.661      1.27654
 289.000   69.214  2.54309  289.000   90.637      1.27607
 290.000   69.175  2.54209  290.000   90.613      1.27560
 291.000   69.135  2.54108  291.000   90.589      1.27514
 292.000   69.095  2.54008  292.000   90.565      1.27467
 293.000   69.055  2.53908  293.000   90.541      1.27420
 294.000   69.016  2.53808  294.000   90.517      1.27374
 295.000   68.976  2.53707  295.000   90.493      1.27326
 296.000   68.936  2.53607  296.000   90.469      1.27280
 297.000   68.897  2.53507  297.000   90.446      1.27233
 298.000   68.857  2.53407  298.000   90.422      1.27186
 299.000   68.818  2.53306  299.000   90.398      1.27140
 300.000   68.778  2.53206  300.000   90.375      1.27093
 301.000   68.739  2.53106  301.000   90.351      1.27047
 302.000   68.700  2.53006  302.000   90.328      1.27000
 303.000   68.660  2.52905  303.000   90.305      1.26953
 304.000   68.621  2.52805  304.000   90.281      1.26907
 305.000   68.582  2.52705  305.000   90.258      1.26860
 306.000   68.542  2.52605  306.000   90.235      1.26813
 307.000   68.503  2.52505  307.000   90.212      1.26767
 308.000   68.464  2.52403  308.000   90.189      1.26720
 309.000   68.425  2.52303  309.000   90.166      1.26673
 310.000   68.386  2.52203  310.000   90.143      1.26627
 311.000   68.347  2.52103  311.000   90.120      1.26580
 312.000   68.308  2.52002  312.000   90.097      1.26533
 313.000   68.269  2.51902  313.000   90.075      1.26487
 314.000   68.230  2.51802  314.000   90.052      1.26440
 315.000   68.191  2.51702  315.000   90.030      1.26393
 316.000   68.152  2.51602  316.000   90.007      1.26347
 317.000   68.113  2.51502  317.000   89.985      1.26300
 318.000   68.074  2.51401  318.000   89.962      1.26253
 319.000   68.035  2.51301  319.000   89.940      1.26207
 320.000   67.997  2.51201  320.000   89.918      1.26160
 321.000   67.958  2.51101  321.000   89.896      1.26113
 322.000   67.919  2.51001  322.000   89.874      1.26067
 323.000   67.880  2.50901  323.000   89.852      1.26020
 324.000   67.842  2.50801  324.000   89.830      1.25973
 325.000   67.803  2.50700  325.000   89.808      1.25927
 326.000   67.765  2.50600  326.000   89.786      1.25880
 327.000   67.726  2.50500  327.000   89.764      1.25833
 328.000   67.688  2.50400  328.000   89.743      1.25787
 329.000   67.649  2.50300  329.000   89.721      1.25740
 330.000   67.611  2.50200  330.000   89.699      1.25694
 331.000   67.572  2.50100  331.000   89.678      1.25647
 332.000   67.534  2.49999  332.000   89.657      1.25600
 333.000   67.495  2.49898  333.000   89.635      1.25554
 334.000   67.457  2.49798  334.000   89.614      1.25507
 335.000   67.419  2.49698  335.000   89.593      1.25460
 336.000   67.381  2.49598  336.000   89.572      1.25414
 337.000   67.342  2.49498  337.000   89.551      1.25367
 338.000   67.304  2.49398  338.000   89.530      1.25320
 339.000   67.266  2.49298  339.000   89.509      1.25274
 340.000   67.228  2.49198  340.000   89.488      1.25226
 341.000   67.190  2.49098  341.000   89.467      1.25180
 342.000   67.152  2.48997  342.000   89.447      1.25133
 343.000   67.113  2.48897  343.000   89.426      1.25086
 344.000   67.075  2.48797  344.000   89.405      1.25040
 345.000   67.037  2.48697  345.000   89.385      1.24993
 346.000   66.999  2.48597  346.000   89.364      1.24946
 347.000   66.962  2.48497  347.000   89.344      1.24900
 348.000   66.924  2.48397  348.000   89.324      1.24853
 349.000   66.886  2.48297  349.000   89.304      1.24807
 350.000   66.848  2.48197  350.000   89.284      1.24760
 351.000   66.810  2.48097  351.000   89.264      1.24713
 352.000   66.772  2.47997  352.000   89.244      1.24667
 353.000   66.734  2.47897  353.000   89.224      1.24620
 354.000   66.697  2.47797  354.000   89.204      1.24573
 355.000   66.659  2.47697  355.000   89.184      1.24527
 356.000   66.621  2.47597  356.000   89.164      1.24480
 357.000   66.584  2.47497  357.000   89.145      1.24433
 358.000   66.546  2.47397  358.000   89.125      1.24387
 359.000   66.508  2.47297  359.000   89.106      1.24340
 360.000   66.471  2.47196  360.000   89.086      1.24293
 361.000   66.433  2.47096  361.000   89.067      1.24247
 362.000   66.396  2.46996  362.000   89.048      1.24200
 363.000   66.358  2.46896  363.000   89.029      1.24153
 364.000   66.321  2.46796  364.000   89.010      1.24107
 365.000   66.283  2.46696  365.000   88.991      1.24060
 366.000   66.246  2.46596  366.000   88.972      1.24013
 367.000   66.208  2.46496  367.000   88.953      1.23967
 368.000   66.171  2.46396  368.000   88.934      1.23920
 369.000   66.134  2.46296  369.000   88.915      1.23873
 370.000   66.096  2.46196  370.000   88.897      1.23827
 371.000   66.059  2.46096  371.000   88.878      1.23780
 372.000   66.022  2.45996  372.000   88.859      1.23733
 373.000   65.984  2.45896  373.000   88.841      1.23687
 374.000   65.947  2.45796  374.000   88.823      1.23640
 375.000   65.910  2.45696  375.000   88.804      1.23593
 376.000   65.873  2.45596  376.000   88.786      1.23547
 377.000   65.836  2.45496  377.000   88.768      1.23500
 378.000   65.799  2.45396  378.000   88.750      1.23453
 379.000   65.761  2.45296  379.000   88.732      1.23407
 380.000   65.724  2.45196  380.000   88.714      1.23360
 381.000   65.687  2.45096  381.000   88.696      1.23314
 382.000   65.650  2.44996  382.000   88.679      1.23267
 383.000   65.613  2.44896  383.000   88.661      1.23220
 384.000   65.576  2.44796  384.000   88.643      1.23174
 385.000   65.539  2.44697  385.000   88.626      1.23127
 386.000   65.502  2.44597  386.000   88.608      1.23080
 387.000   65.465  2.44496  387.000   88.591      1.23034
 388.000   65.429  2.44396  388.000   88.574      1.22987
 389.000   65.392  2.44296  389.000   88.557      1.22940
 390.000   65.355  2.44196  390.000   88.540      1.22894
 391.000   65.318  2.44096  391.000   88.522      1.22847
 392.000   65.281  2.43996  392.000   88.506      1.22800
 393.000   65.244  2.43896  393.000   88.489      1.22753
 394.000   65.208  2.43796  394.000   88.472      1.22706
 395.000   65.171  2.43696  395.000   88.455      1.22660
 396.000   65.134  2.43597  396.000   88.438      1.22613
 397.000   65.098  2.43497  397.000   88.422      1.22567
 398.000   65.061  2.43397  398.000   88.405      1.22520
 399.000   65.024  2.43297  399.000   88.389      1.22473
 400.000   64.988  2.43197  400.000   88.373      1.22427
 401.000   64.951  2.43097  401.000   88.356      1.22380
 402.000   64.914  2.42997  402.000   88.340      1.22333
 403.000   64.878  2.42898  403.000   88.324      1.22287
 404.000   64.841  2.42798  404.000   88.308      1.22240
 405.000   64.805  2.42698  405.000   88.292      1.22193
 406.000   64.768  2.42598  406.000   88.276      1.22147
 407.000   64.732  2.42498  407.000   88.261      1.22100
 408.000   64.695  2.42398  408.000   88.245      1.22053
 409.000   64.659  2.42299  409.000   88.229      1.22007
 410.000   64.623  2.42199  410.000   88.214      1.21960
 411.000   64.586  2.42099  411.000   88.198      1.21913
 412.000   64.550  2.41999  412.000   88.183      1.21867
 413.000   64.514  2.41899  413.000   88.168      1.21820
 414.000   64.477  2.41798  414.000   88.152      1.21773
 415.000   64.441  2.41699  415.000   88.137      1.21727
 416.000   64.405  2.41599  416.000   88.122      1.21680
 417.000   64.368  2.41499  417.000   88.107      1.21633
 418.000   64.332  2.41399  418.000   88.092      1.21587
 419.000   64.296  2.41299  419.000   88.078      1.21540
 420.000   64.260  2.41200  420.000   88.063      1.21493
 421.000   64.223  2.41100  421.000   88.048      1.21447
 422.000   64.187  2.41000  422.000   88.034      1.21400
 423.000   64.151  2.40900  423.000   88.019      1.21353
 424.000   64.115  2.40800  424.000   88.005      1.21307
 425.000   64.079  2.40701  425.000   87.991      1.21260
 426.000   64.043  2.40601  426.000   87.976      1.21213
 427.000   64.007  2.40501  427.000   87.962      1.21167
 428.000   63.971  2.40401  428.000   87.948      1.21120
 429.000   63.935  2.40302  429.000   87.934      1.21073
 430.000   63.899  2.40202  430.000   87.920      1.21027
 431.000   63.863  2.40102  431.000   87.906      1.20980
 432.000   63.827  2.40002  432.000   87.893      1.20934
 433.000   63.791  2.39903  433.000   87.879      1.20887
 434.000   63.755  2.39803  434.000   87.866      1.20840
 435.000   63.719  2.39703  435.000   87.852      1.20794
 436.000   63.683  2.39603  436.000   87.839      1.20747
 437.000   63.647  2.39504  437.000   87.825      1.20700
 438.000   63.611  2.39404  438.000   87.812      1.20654
 439.000   63.575  2.39304  439.000   87.799      1.20607
 440.000   63.539  2.39205  440.000   87.786      1.20560
 441.000   63.503  2.39105  441.000   87.773      1.20514
 442.000   63.468  2.39004  442.000   87.760      1.20467
 443.000   63.432  2.38904  443.000   87.747      1.20420
 444.000   63.396  2.38805  444.000   87.735      1.20374
 445.000   63.360  2.38705  445.000   87.722      1.20327
 446.000   63.325  2.38605  446.000   87.710      1.20280
 447.000   63.289  2.38506  447.000   87.697      1.20234
 448.000   63.253  2.38406  448.000   87.685      1.20187
 449.000   63.217  2.38306  449.000   87.673      1.20140
 450.000   63.182  2.38207  450.000   87.660      1.20094
 451.000   63.146  2.38107  451.000   87.648      1.20047
 452.000   63.110  2.38007  452.000   87.636      1.20000
 453.000   63.075  2.37908  453.000   87.624      1.19954
 454.000   63.039  2.37808  454.000   87.613      1.19907
 455.000   63.004  2.37708  455.000   87.601      1.19860
 456.000   62.968  2.37609  456.000   87.589      1.19814
 457.000   62.932  2.37509  457.000   87.578      1.19767
 458.000   62.897  2.37409  458.000   87.566      1.19720
 459.000   62.861  2.37310  459.000   87.555      1.19674
 460.000   62.826  2.37210  460.000   87.543      1.19627
 461.000   62.790  2.37110  461.000   87.532      1.19580
 462.000   62.755  2.37011  462.000   87.521      1.19534
 463.000   62.719  2.36911  463.000   87.510      1.19487
 464.000   62.684  2.36811  464.000   87.499      1.19440
 465.000   62.648  2.36712  465.000   87.488      1.19393
 466.000   62.613  2.36612  466.000   87.478      1.19347
 467.000   62.578  2.36513  467.000   87.467      1.19300
 468.000   62.542  2.36413  468.000   87.456      1.19253
 469.000   62.507  2.36313  469.000   87.446      1.19207
 470.000   62.471  2.36213  470.000   87.435      1.19160
 471.000   62.436  2.36113  471.000   87.425      1.19113
 472.000   62.401  2.36014  472.000   87.415      1.19067
 473.000   62.365  2.35914  473.000   87.405      1.19020
 474.000   62.330  2.35814  474.000   87.395      1.18973
 475.000   62.295  2.35715  475.000   87.385      1.18927
 476.000   62.259  2.35615  476.000   87.375      1.18880
 477.000   62.224  2.35516  477.000   87.365      1.18833
 478.000   62.189  2.35416  478.000   87.355      1.18787
 479.000   62.154  2.35316  479.000   87.346      1.18740
 480.000   62.118  2.35217  480.000   87.336      1.18693
 481.000   62.083  2.35117  481.000   87.327      1.18647
 482.000   62.048  2.35018  482.000   87.317      1.18600
 483.000   62.013  2.34918  483.000   87.308      1.18553
 484.000   61.978  2.34819  484.000   87.299      1.18507
 485.000   61.943  2.34719  485.000   87.290      1.18460
 486.000   61.907  2.34620  486.000   87.281      1.18413
 487.000   61.872  2.34520  487.000   87.272      1.18367
 488.000   61.837  2.34420  488.000   87.263      1.18320
 489.000   61.802  2.34321  489.000   87.255      1.18274
 490.000   61.767  2.34221  490.000   87.246      1.18227
 491.000   61.732  2.34122  491.000   87.238      1.18180
 492.000   61.697  2.34022  492.000   87.229      1.18134
 493.000   61.662  2.33923  493.000   87.221      1.18087
 494.000   61.627  2.33823  494.000   87.213      1.18040
 495.000   61.592  2.33724  495.000   87.205      1.17994
 496.000   61.556  2.33624  496.000   87.197      1.17947
 497.000   61.521  2.33525  497.000   87.189      1.17900
 498.000   61.486  2.33424  498.000   87.181      1.17854
 499.000   61.451  2.33325  499.000   87.173      1.17807
 500.000   61.416  2.33225  500.000   87.165      1.17760
 501.000   61.382  2.33126  501.000   87.158      1.17714
 502.000   61.347  2.33026  502.000   87.150      1.17667
 503.000   61.312  2.32927  503.000   87.143      1.17620
 504.000   61.277  2.32827  504.000   87.136      1.17574
 505.000   61.242  2.32728  505.000   87.129      1.17527
 506.000   61.207  2.32628  506.000   87.122      1.17480
 507.000   61.172  2.32529  507.000   87.115      1.17434
 508.000   61.137  2.32429  508.000   87.108      1.17387
 509.000   61.102  2.32330  509.000   87.101      1.17340
 510.000   61.067  2.32231  510.000   87.094      1.17294
 511.000   61.032  2.32131  511.000   87.088      1.17247
 512.000   60.998  2.32032  512.000   87.081      1.17200
 513.000   60.963  2.31932  513.000   87.075      1.17154
 514.000   60.928  2.31833  514.000   87.068      1.17107
 515.000   60.893  2.31733  515.000   87.062      1.17060
 516.000   60.858  2.31634  516.000   87.056      1.17014
 517.000   60.824  2.31534  517.000   87.050      1.16967
 518.000   60.789  2.31435  518.000   87.044      1.16920
 519.000   60.754  2.31336  519.000   87.038      1.16874
 520.000   60.719  2.31236  520.000   87.033      1.16827
 521.000   60.684  2.31137  521.000   87.027      1.16780
 522.000   60.650  2.31037  522.000   87.021      1.16734
 523.000   60.615  2.30938  523.000   87.016      1.16687
 524.000   60.580  2.30839  524.000   87.011      1.16640
 525.000   60.546  2.30739  525.000   87.005      1.16594
 526.000   60.511  2.30640  526.000   87.000      1.16547
 527.000   60.476  2.30539  527.000   86.995      1.16500
 528.000   60.441  2.30440  528.000   86.990      1.16454
 529.000   60.407  2.30341  529.000   86.985      1.16407
 530.000   60.372  2.30241  530.000   86.981      1.16360
 531.000   60.337  2.30142  531.000   86.976      1.16314
 532.000   60.303  2.30042  532.000   86.971      1.16267
 533.000   60.268  2.29943  533.000   86.967      1.16221
 534.000   60.234  2.29844  534.000   86.963      1.16174
 535.000   60.199  2.29744  535.000   86.958      1.16127
 536.000   60.164  2.29645  536.000   86.954      1.16081
 537.000   60.130  2.29546  537.000   86.950      1.16034
 538.000   60.095  2.29446  538.000   86.946      1.15987
 539.000   60.061  2.29347  539.000   86.942      1.15941
 540.000   60.026  2.29248  540.000   86.938      1.15894
 541.000   59.991  2.29148  541.000   86.935      1.15847
 542.000   59.957  2.29049  542.000   86.931      1.15801
 543.000   59.922  2.28950  543.000   86.928      1.15754
 544.000   59.888  2.28850  544.000   86.924      1.15707
 545.000   59.853  2.28751  545.000   86.921      1.15661
 546.000   59.819  2.28652  546.000   86.918      1.15614
 547.000   59.784  2.28552  547.000   86.915      1.15567
 548.000   59.750  2.28453  548.000   86.912      1.15521
 549.000   59.715  2.28354  549.000   86.909      1.15474
 550.000   59.681  2.28254  550.000   86.906      1.15427
 551.000   59.646  2.28155  551.000   86.904      1.15381
 552.000   59.612  2.28056  552.000   86.901      1.15334
 553.000   59.577  2.27956  553.000   86.899      1.15287
 554.000   59.543  2.27857  554.000   86.896      1.15241
 555.000   59.509  2.27758  555.000   86.894      1.15194
 556.000   59.474  2.27657  556.000   86.892      1.15147
 557.000   59.440  2.27558  557.000   86.890      1.15101
 558.000   59.405  2.27459  558.000   86.888      1.15054
 559.000   59.371  2.27360  559.000   86.886      1.15007
 560.000   59.336  2.27260  560.000   86.885      1.14961
 561.000   59.302  2.27161  561.000   86.883      1.14914
 562.000   59.268  2.27062  562.000   86.881      1.14867
 563.000   59.233  2.26963  563.000   86.880      1.14821
 564.000   59.199  2.26863  564.000   86.879      1.14774
 565.000   59.165  2.26764  565.000   86.877      1.14727
 566.000   59.130  2.26665  566.000   86.876      1.14681
 567.000   59.096  2.26566  567.000   86.875      1.14634
 568.000   59.062  2.26466  568.000   86.874      1.14587
 569.000   59.027  2.26367  569.000   86.874      1.14541
 570.000   58.993  2.26268  570.000   86.873      1.14494
 571.000   58.959  2.26169  571.000   86.872      1.14447
 572.000   58.924  2.26069  572.000   86.872      1.14401
 573.000   58.890  2.25970  573.000   86.872      1.14354
 574.000   58.856  2.25871  574.000   86.871      1.14307
 575.000   58.821  2.25772  575.000   86.871      1.14261
 576.000   58.787  2.25673  576.000   86.871      1.14214
 577.000   58.753  2.25573  577.000   86.871      1.14167
 578.000   58.719  2.25474  578.000   86.871      1.14121
 579.000   58.684  2.25375  579.000   86.872      1.14074
 580.000   58.650  2.25276  580.000   86.872      1.14027
 581.000   58.616  2.25177  581.000   86.872      1.13981
 582.000   58.582  2.25077  582.000   86.873      1.13934
 583.000   58.547  2.24978  583.000   86.874      1.13888
 584.000   58.513  2.24879  584.000   86.874      1.13841
 585.000   58.479  2.24779  585.000   86.875      1.13794
 586.000   58.445  2.24680  586.000   86.876      1.13748
 587.000   58.410  2.24580  587.000   86.877      1.13701
 588.000   58.376  2.24481  588.000   86.879      1.13654
 589.000   58.342  2.24382  589.000   86.880      1.13608
 590.000   58.308  2.24283  590.000   86.881      1.13561
 591.000   58.274  2.24184  591.000   86.883      1.13514
 592.000   58.240  2.24085  592.000   86.885      1.13468
 593.000   58.205  2.23985  593.000   86.886      1.13421
 594.000   58.171  2.23886  594.000   86.888      1.13374
 595.000   58.137  2.23787  595.000   86.890      1.13328
 596.000   58.103  2.23688  596.000   86.892      1.13281
 597.000   58.069  2.23589  597.000   86.895      1.13234
 598.000   58.035  2.23490  598.000   86.897      1.13188
 599.000   58.001  2.23391  599.000   86.899      1.13141
 600.000   57.966  2.23292  600.000   86.902      1.13094
 601.000   57.932  2.23192  601.000   86.904      1.13048
 602.000   57.898  2.23093  602.000   86.907      1.13001
 603.000   57.864  2.22994  603.000   86.910      1.12954
 604.000   57.830  2.22895  604.000   86.913      1.12908
 605.000   57.796  2.22796  605.000   86.916      1.12861
 606.000   57.762  2.22697  606.000   86.919      1.12814
 607.000   57.728  2.22598  607.000   86.922      1.12768
 608.000   57.694  2.22499  608.000   86.926      1.12721
 609.000   57.660  2.22400  609.000   86.929      1.12674
 610.000   57.625  2.22301  610.000   86.933      1.12628
 611.000   57.591  2.22201  611.000   86.937      1.12581
 612.000   57.557  2.22102  612.000   86.941      1.12534
 613.000   57.523  2.22003  613.000   86.945      1.12488
 614.000   57.489  2.21903  614.000   86.949      1.12441
 615.000   57.455  2.21804  615.000   86.953      1.12394
 616.000   57.421  2.21705  616.000   86.957      1.12348
 617.000   57.387  2.21606  617.000   86.961      1.12301
 618.000   57.353  2.21507  618.000   86.966      1.12254
 619.000   57.319  2.21408  619.000   86.971      1.12208
 620.000   57.285  2.21309  620.000   86.975      1.12161
 621.000   57.251  2.21210  621.000   86.980      1.12114
 622.000   57.217  2.21111  622.000   86.985      1.12068
 623.000   57.183  2.21012  623.000   86.990      1.12021
 624.000   57.149  2.20913  624.000   86.995      1.11974
 625.000   57.115  2.20814  625.000   87.001      1.11928
 626.000   57.081  2.20715  626.000   87.006      1.11881
 627.000   57.047  2.20616  627.000   87.012      1.11834
 628.000   57.013  2.20517  628.000   87.017      1.11788
 629.000   56.979  2.20417  629.000   87.023      1.11741
 630.000   56.945  2.20318  630.000   87.029      1.11694
 631.000   56.911  2.20219  631.000   87.035      1.11648
 632.000   56.877  2.20120  632.000   87.041      1.11601
 633.000   56.844  2.20021  633.000   87.047      1.11554
 634.000   56.810  2.19922  634.000   87.053      1.11508
 635.000   56.776  2.19824  635.000   87.060      1.11461
 636.000   56.742  2.19725  636.000   87.066      1.11414
 637.000   56.708  2.19626  637.000   87.073      1.11368
 638.000   56.674  2.19527  638.000   87.080      1.11321
 639.000   56.640  2.19428  639.000   87.087      1.11274
 640.000   56.606  2.19329  640.000   87.094      1.11228
 641.000   56.572  2.19230  641.000   87.101      1.11181
 642.000   56.538  2.19131  642.000   87.108      1.11134
 643.000   56.504  2.19032  643.000   87.115      1.11088
 644.000   56.470  2.18932  644.000   87.123      1.11041
 645.000   56.437  2.18833  645.000   87.131      1.10994
 646.000   56.403  2.18734  646.000   87.138      1.10948
 647.000   56.369  2.18635  647.000   87.146      1.10901
 648.000   56.335  2.18536  648.000   87.154      1.10854
 649.000   56.301  2.18437  649.000   87.162      1.10808
 650.000   56.267  2.18338  650.000   87.170      1.10761
 651.000   56.233  2.18239  651.000   87.178      1.10714
 652.000   56.200  2.18140  652.000   87.187      1.10668
 653.000   56.166  2.18041  653.000   87.195      1.10621
 654.000   56.132  2.17942  654.000   87.204      1.10574
 655.000   56.098  2.17843  655.000   87.213      1.10528
 656.000   56.064  2.17744  656.000   87.222      1.10481
 657.000   56.030  2.17646  657.000   87.231      1.10434
 658.000   55.997  2.17547  658.000   87.240      1.10388
 659.000   55.963  2.17448  659.000   87.249      1.10341
 660.000   55.929  2.17349  660.000   87.258      1.10294
 661.000   55.895  2.17250  661.000   87.268      1.10248
 662.000   55.861  2.17151  662.000   87.277      1.10201
 663.000   55.828  2.17052  663.000   87.287      1.10154
 664.000   55.794  2.16953  664.000   87.297      1.10108
 665.000   55.760  2.16854  665.000   87.307      1.10061
 666.000   55.726  2.16755  666.000   87.317      1.10014
 667.000   55.692  2.16657  667.000   87.327      1.09968
 668.000   55.659  2.16558  668.000   87.337      1.09921
 669.000   55.625  2.16459  669.000   87.348      1.09874
 670.000   55.591  2.16360  670.000   87.358      1.09828
 671.000   55.557  2.16261  671.000   87.369      1.09781
 672.000   55.524  2.16162  672.000   87.380      1.09734
 673.000   55.490  2.16062  673.000   87.391      1.09688
 674.000   55.456  2.15963  674.000   87.402      1.09641
 675.000   55.422  2.15865  675.000   87.413      1.09595
 676.000   55.389  2.15766  676.000   87.424      1.09548
 677.000   55.355  2.15667  677.000   87.435      1.09501
 678.000   55.321  2.15568  678.000   87.447      1.09455
 679.000   55.287  2.15469  679.000   87.458      1.09408
 680.000   55.254  2.15370  680.000   87.470      1.09361
 681.000   55.220  2.15272  681.000   87.482      1.09315
 682.000   55.186  2.15173  682.000   87.494      1.09268
 683.000   55.152  2.15074  683.000   87.506      1.09222
 684.000   55.119  2.14975  684.000   87.518      1.09175
 685.000   55.085  2.14876  685.000   87.531      1.09128
 686.000   55.051  2.14778  686.000   87.543      1.09082
 687.000   55.018  2.14679  687.000   87.556      1.09035
 688.000   54.984  2.14580  688.000   87.568      1.08988
 689.000   54.950  2.14481  689.000   87.581      1.08942
 690.000   54.917  2.14382  690.000   87.594      1.08895
 691.000   54.883  2.14284  691.000   87.607      1.08848
 692.000   54.849  2.14185  692.000   87.620      1.08802
 693.000   54.816  2.14086  693.000   87.634      1.08755
 694.000   54.782  2.13987  694.000   87.647      1.08708
 695.000   54.748  2.13889  695.000   87.661      1.08662
 696.000   54.715  2.13790  696.000   87.674      1.08615
 697.000   54.681  2.13691  697.000   87.688      1.08568
 698.000   54.647  2.13592  698.000   87.702      1.08522
 699.000   54.614  2.13493  699.000   87.716      1.08475
 700.000   54.580  2.13395  700.000   87.730      1.08428
 701.000   54.546  2.13296  701.000   87.745      1.08382
 702.000   54.513  2.13197  702.000   87.759      1.08335
 703.000   54.479  2.13097  703.000   87.774      1.08288
 704.000   54.446  2.12999  704.000   87.788      1.08242
 705.000   54.412  2.12900  705.000   87.803      1.08195
 706.000   54.378  2.12801  706.000   87.818      1.08148
 707.000   54.345  2.12702  707.000   87.833      1.08102
 708.000   54.311  2.12604  708.000   87.848      1.08055
 709.000   54.278  2.12505  709.000   87.864      1.08008
 710.000   54.244  2.12406  710.000   87.879      1.07962
 711.000   54.210  2.12308  711.000   87.895      1.07915
 712.000   54.177  2.12209  712.000   87.910      1.07868
 713.000   54.143  2.12110  713.000   87.926      1.07822
 714.000   54.110  2.12012  714.000   87.942      1.07775
 715.000   54.076  2.11913  715.000   87.958      1.07728
 716.000   54.043  2.11814  716.000   87.974      1.07682
 717.000   54.009  2.11715  717.000   87.991      1.07635
 718.000   53.975  2.11617  718.000   88.007      1.07588
 719.000   53.942  2.11518  719.000   88.024      1.07542
 720.000   53.908  2.11419  720.000   88.040      1.07495
 721.000   53.875  2.11321  721.000   88.057      1.07448
 722.000   53.841  2.11222  722.000   88.074      1.07402
 723.000   53.808  2.11123  723.000   88.091      1.07355
 724.000   53.774  2.11025  724.000   88.108      1.07308
 725.000   53.741  2.10926  725.000   88.126      1.07262
 726.000   53.707  2.10827  726.000   88.143      1.07215
 727.000   53.674  2.10729  727.000   88.161      1.07168
 728.000   53.640  2.10630  728.000   88.178      1.07122
 729.000   53.607  2.10531  729.000   88.196      1.07075
 730.000   53.573  2.10433  730.000   88.214      1.07028
 731.000   53.540  2.10334  731.000   88.232      1.06982
 732.000   53.506  2.10236  732.000   88.251      1.06935
 733.000   53.473  2.10136  733.000   88.269      1.06888
 734.000   53.439  2.10037  734.000   88.287      1.06842
 735.000   53.406  2.09939  735.000   88.306      1.06795
 736.000   53.372  2.09840  736.000   88.325      1.06748
 737.000   53.339  2.09741  737.000   88.344      1.06702
 738.000   53.305  2.09643  738.000   88.363      1.06655
 739.000   53.272  2.09544  739.000   88.382      1.06608
 740.000   53.238  2.09446  740.000   88.401      1.06562
 741.000   53.205  2.09347  741.000   88.421      1.06515
 742.000   53.172  2.09248  742.000   88.440      1.06468
 743.000   53.138  2.09150  743.000   88.460      1.06422
 744.000   53.105  2.09051  744.000   88.479      1.06375
 745.000   53.071  2.08953  745.000   88.499      1.06328
 746.000   53.038  2.08854  746.000   88.519      1.06282
 747.000   53.004  2.08755  747.000   88.540      1.06236
 748.000   52.971  2.08657  748.000   88.560      1.06189
 749.000   52.938  2.08558  749.000   88.580      1.06142
 750.000   52.904  2.08460  750.000   88.601      1.06096
 751.000   52.871  2.08361  751.000   88.622      1.06049
 752.000   52.837  2.08263  752.000   88.643      1.06002
 753.000   52.804  2.08164  753.000   88.663      1.05956
 754.000   52.771  2.08065  754.000   88.685      1.05909
 755.000   52.737  2.07967  755.000   88.706      1.05862
 756.000   52.704  2.07868  756.000   88.727      1.05816
 757.000   52.671  2.07770  757.000   88.749      1.05769
 758.000   52.637  2.07671  758.000   88.770      1.05722
 759.000   52.604  2.07573  759.000   88.792      1.05676
 760.000   52.570  2.07474  760.000   88.814      1.05629
 761.000   52.537  2.07376  761.000   88.836      1.05582
 762.000   52.504  2.07277  762.000   88.858      1.05536
 763.000   52.470  2.07178  763.000   88.880      1.05489
 764.000   52.437  2.07079  764.000   88.903      1.05442
 765.000   52.404  2.06980  765.000   88.925      1.05396
 766.000   52.371  2.06882  766.000   88.948      1.05349
 767.000   52.337  2.06783  767.000   88.971      1.05302
 768.000   52.304  2.06685  768.000   88.994      1.05256
 769.000   52.271  2.06586  769.000   89.017      1.05209
 770.000   52.237  2.06488  770.000   89.040      1.05162
 771.000   52.204  2.06389  771.000   89.064      1.05116
 772.000   52.171  2.06291  772.000   89.087      1.05069
 773.000   52.137  2.06193  773.000   89.111      1.05022
 774.000   52.104  2.06094  774.000   89.135      1.04975
 775.000   52.071  2.05996  775.000   89.159      1.04929
 776.000   52.038  2.05897  776.000   89.183      1.04882
 777.000   52.004  2.05799  777.000   89.207      1.04835
 778.000   51.971  2.05700  778.000   89.231      1.04789
 779.000   51.938  2.05602  779.000   89.256      1.04742
 780.000   51.905  2.05503  780.000   89.280      1.04695
 781.000   51.871  2.05405  781.000   89.305      1.04649
 782.000   51.838  2.05306  782.000   89.330      1.04602
 783.000   51.805  2.05208  783.000   89.355      1.04555
 784.000   51.772  2.05109  784.000   89.380      1.04509
 785.000   51.739  2.05011  785.000   89.405      1.04462
 786.000   51.705  2.04913  786.000   89.431      1.04415
 787.000   51.672  2.04814  787.000   89.456      1.04369
 788.000   51.639  2.04716  788.000   89.482      1.04322
 789.000   51.606  2.04617  789.000   89.508      1.04276
 790.000   51.573  2.04519  790.000   89.534      1.04229
 791.000   51.540  2.04420  791.000   89.560      1.04183
 792.000   51.506  2.04322  792.000   89.586      1.04136
 793.000   51.473  2.04223  793.000   89.612      1.04089
 794.000   51.440  2.04124  794.000   89.639      1.04043
 795.000   51.407  2.04026  795.000   89.665      1.03996
 796.000   51.374  2.03927  796.000   89.692      1.03949
 797.000   51.341  2.03829  797.000   89.719      1.03903
 798.000   51.308  2.03731  798.000   89.746      1.03856
 799.000   51.274  2.03632  799.000   89.773      1.03809
 800.000   51.241  2.03534  800.000   89.801      1.03763
 801.000   51.208  2.03435  801.000   89.828      1.03716
 802.000   51.175  2.03337  802.000   89.856      1.03669
 803.000   51.142  2.03239  803.000   89.884      1.03623
 804.000   51.109  2.03140  804.000   89.912      1.03576
 805.000   51.076  2.03042  805.000   89.940      1.03529
 806.000   51.043  2.02944  806.000   89.968      1.03483
 807.000   51.010  2.02845  807.000   89.996      1.03436
 808.000   50.977  2.02747  808.000   90.025      1.03389
 809.000   50.944  2.02648  809.000   90.053      1.03343
 810.000   50.911  2.02550  810.000   90.082      1.03296
 811.000   50.878  2.02452  811.000   90.111      1.03249
 812.000   50.845  2.02353  812.000   90.140      1.03203
 813.000   50.812  2.02255  813.000   90.169      1.03156
 814.000   50.779  2.02157  814.000   90.198      1.03109
 815.000   50.746  2.02058  815.000   90.228      1.03063
 816.000   50.713  2.01960  816.000   90.257      1.03016
 817.000   50.680  2.01862  817.000   90.287      1.02969
 818.000   50.647  2.01764  818.000   90.317      1.02923
 819.000   50.614  2.01665  819.000   90.347      1.02876
 820.000   50.581  2.01567  820.000   90.377      1.02829
 821.000   50.548  2.01469  821.000   90.407      1.02782
 822.000   50.515  2.01370  822.000   90.438      1.02736
 823.000   50.482  2.01271  823.000   90.468      1.02689
 824.000   50.449  2.01173  824.000   90.499      1.02642
 825.000   50.416  2.01074  825.000   90.530      1.02596
 826.000   50.383  2.00976  826.000   90.561      1.02550
 827.000   50.350  2.00878  827.000   90.592      1.02503
 828.000   50.317  2.00779  828.000   90.623      1.02456
 829.000   50.284  2.00681  829.000   90.655      1.02410
 830.000   50.252  2.00583  830.000   90.686      1.02363
 831.000   50.219  2.00485  831.000   90.718      1.02316
 832.000   50.186  2.00386  832.000   90.750      1.02270
 833.000   50.153  2.00288  833.000   90.782      1.02223
 834.000   50.120  2.00190  834.000   90.814      1.02176
 835.000   50.087  2.00092  835.000   90.847      1.02130
 836.000   50.055  1.99993  836.000   90.879      1.02083
 837.000   50.022  1.99895  837.000   90.912      1.02036
 838.000   49.989  1.99797  838.000   90.944      1.01990
 839.000   49.956  1.99699  839.000   90.977      1.01943
 840.000   49.923  1.99600  840.000   91.010      1.01896
 841.000   49.891  1.99502  841.000   91.043      1.01850
 842.000   49.858  1.99404  842.000   91.077      1.01803
 843.000   49.825  1.99306  843.000   91.110      1.01756
 844.000   49.792  1.99207  844.000   91.144      1.01710
 845.000   49.760  1.99109  845.000   91.178      1.01663
 846.000   49.727  1.99011  846.000   91.211      1.01616
 847.000   49.694  1.98913  847.000   91.245      1.01570
 848.000   49.661  1.98815  848.000   91.280      1.01523
 849.000   49.629  1.98716  849.000   91.314      1.01476
 850.000   49.596  1.98618  850.000   91.348      1.01429
 851.000   49.563  1.98520  851.000   91.383      1.01383
 852.000   49.531  1.98422  852.000   91.418      1.01336
 853.000   49.498  1.98323  853.000   91.453      1.01289
 854.000   49.465  1.98224  854.000   91.488      1.01243
 855.000   49.433  1.98126  855.000   91.523      1.01197
 856.000   49.400  1.98028  856.000   91.558      1.01150
 857.000   49.367  1.97930  857.000   91.594      1.01103
 858.000   49.335  1.97832  858.000   91.630      1.01057
 859.000   49.302  1.97733  859.000   91.665      1.01010
 860.000   49.270  1.97635  860.000   91.701      1.00963
 861.000   49.237  1.97537  861.000   91.738      1.00917
 862.000   49.204  1.97439  862.000   91.774      1.00870
 863.000   49.172  1.97341  863.000   91.810      1.00823
 864.000   49.139  1.97243  864.000   91.847      1.00777
 865.000   49.107  1.97145  865.000   91.883      1.00730
 866.000   49.074  1.97046  866.000   91.920      1.00683
 867.000   49.042  1.96948  867.000   91.957      1.00637
 868.000   49.009  1.96850  868.000   91.994      1.00590
 869.000   48.977  1.96752  869.000   92.032      1.00543
 870.000   48.944  1.96654  870.000   92.069      1.00497
 871.000   48.912  1.96556  871.000   92.107      1.00450
 872.000   48.879  1.96458  872.000   92.145      1.00403
 873.000   48.847  1.96360  873.000   92.182      1.00357
 874.000   48.814  1.96261  874.000   92.221      1.00310
 875.000   48.782  1.96163  875.000   92.259      1.00263
 876.000   48.749  1.96065  876.000   92.297      1.00216
 877.000   48.717  1.95967  877.000   92.336      1.00170
 878.000   48.685  1.95869  878.000   92.374      1.00123
 879.000   48.652  1.95771  879.000   92.413      1.00076
 880.000   48.620  1.95673  880.000   92.452      1.00030
 881.000   48.587  1.95575  881.000   92.491      0.99983
 882.000   48.555  1.95477  882.000   92.530      0.99937
 883.000   48.523  1.95379  883.000   92.570      0.99890
 884.000   48.490  1.95279  884.000   92.609      0.99844
 885.000   48.458  1.95181  885.000   92.649      0.99797
 886.000   48.426  1.95083  886.000   92.689      0.99750
 887.000   48.394  1.94985  887.000   92.729      0.99704
 888.000   48.361  1.94887  888.000   92.769      0.99657
 889.000   48.329  1.94789  889.000   92.809      0.99610
 890.000   48.297  1.94691  890.000   92.850      0.99564
 891.000   48.265  1.94593  891.000   92.890      0.99517
 892.000   48.232  1.94495  892.000   92.931      0.99470
 893.000   48.200  1.94397  893.000   92.972      0.99424
 894.000   48.168  1.94299  894.000   93.013      0.99377
 895.000   48.136  1.94201  895.000   93.054      0.99330
 896.000   48.103  1.94103  896.000   93.096      0.99283
 897.000   48.071  1.94005  897.000   93.137      0.99237
 898.000   48.039  1.93907  898.000   93.179      0.99190
 899.000   48.007  1.93809  899.000   93.221      0.99143
 900.000   47.975  1.93711  900.000   93.263      0.99097
 901.000   47.943  1.93613  901.000   93.305      0.99050
 902.000   47.911  1.93515  902.000   93.347      0.99003
 903.000   47.879  1.93417  903.000   93.390      0.98957
 904.000   47.847  1.93319  904.000   93.433      0.98910
 905.000   47.815  1.93221  905.000   93.475      0.98863
 906.000   47.782  1.93123  906.000   93.518      0.98817
 907.000   47.750  1.93025  907.000   93.561      0.98771
 908.000   47.718  1.92927  908.000   93.605      0.98724
 909.000   47.686  1.92829  909.000   93.648      0.98677
 910.000   47.654  1.92731  910.000   93.692      0.98631
 911.000   47.622  1.92633  911.000   93.735      0.98584
 912.000   47.591  1.92535  912.000   93.779      0.98537
 913.000   47.559  1.92437  913.000   93.823      0.98490
 914.000   47.527  1.92339  914.000   93.867      0.98444
 915.000   47.495  1.92240  915.000   93.912      0.98397
 916.000   47.463  1.92142  916.000   93.956      0.98350
 917.000   47.431  1.92044  917.000   94.001      0.98304
 918.000   47.399  1.91946  918.000   94.046      0.98257
 919.000   47.367  1.91848  919.000   94.091      0.98210
 920.000   47.335  1.91750  920.000   94.136      0.98164
 921.000   47.304  1.91652  921.000   94.181      0.98117
 922.000   47.272  1.91554  922.000   94.226      0.98070
 923.000   47.240  1.91456  923.000   94.272      0.98024
 924.000   47.208  1.91358  924.000   94.318      0.97977
 925.000   47.176  1.91260  925.000   94.364      0.97930
 926.000   47.145  1.91163  926.000   94.410      0.97884
 927.000   47.113  1.91065  927.000   94.456      0.97837
 928.000   47.081  1.90967  928.000   94.502      0.97791
 929.000   47.050  1.90869  929.000   94.549      0.97744
 930.000   47.018  1.90771  930.000   94.596      0.97697
 931.000   46.986  1.90673  931.000   94.642      0.97651
 932.000   46.955  1.90575  932.000   94.689      0.97604
 933.000   46.923  1.90477  933.000   94.737      0.97557
 934.000   46.891  1.90379  934.000   94.784      0.97511
 935.000   46.860  1.90281  935.000   94.831      0.97464
 936.000   46.828  1.90184  936.000   94.879      0.97417
 937.000   46.797  1.90086  937.000   94.927      0.97371
 938.000   46.765  1.89988  938.000   94.975      0.97324
 939.000   46.734  1.89890  939.000   95.023      0.97277
 940.000   46.702  1.89792  940.000   95.071      0.97231
 941.000   46.670  1.89694  941.000   95.120      0.97184
 942.000   46.639  1.89596  942.000   95.168      0.97137
 943.000   46.608  1.89499  943.000   95.217      0.97091
 944.000   46.576  1.89401  944.000   95.266      0.97044
 945.000   46.545  1.89303  945.000   95.315      0.96997
 946.000   46.513  1.89205  946.000   95.364      0.96951
 947.000   46.482  1.89106  947.000   95.414      0.96904
 948.000   46.451  1.89008  948.000   95.463      0.96857
 949.000   46.419  1.88910  949.000   95.513      0.96811
 950.000   46.388  1.88813  950.000   95.563      0.96764
 951.000   46.357  1.88715  951.000   95.613      0.96718
 952.000   46.325  1.88617  952.000   95.663      0.96671
 953.000   46.294  1.88519  953.000   95.714      0.96624
 954.000   46.263  1.88421  954.000   95.764      0.96578
 955.000   46.231  1.88323  955.000   95.815      0.96531
 956.000   46.200  1.88226  956.000   95.866      0.96484
 957.000   46.169  1.88128  957.000   95.917      0.96438
 958.000   46.138  1.88030  958.000   95.968      0.96391
 959.000   46.107  1.87932  959.000   96.019      0.96344
 960.000   46.076  1.87834  960.000   96.071      0.96298
 961.000   46.044  1.87737  961.000   96.123      0.96251
 962.000   46.013  1.87639  962.000   96.175      0.96204
 963.000   45.982  1.87541  963.000   96.227      0.96158
 964.000   45.951  1.87443  964.000   96.279      0.96111
 965.000   45.920  1.87345  965.000   96.331      0.96064
 966.000   45.889  1.87248  966.000   96.384      0.96018
 967.000   45.858  1.87150  967.000   96.436      0.95971
 968.000   45.827  1.87052  968.000   96.489      0.95924
 969.000   45.796  1.86954  969.000   96.542      0.95878
 970.000   45.765  1.86857  970.000   96.595      0.95831
 971.000   45.734  1.86759  971.000   96.649      0.95785
 972.000   45.703  1.86661  972.000   96.702      0.95738
 973.000   45.672  1.86563  973.000   96.756      0.95691
 974.000   45.642  1.86466  974.000   96.810      0.95645
 975.000   45.611  1.86368  975.000   96.864      0.95598
 976.000   45.580  1.86270  976.000   96.918      0.95551
 977.000   45.549  1.86172  977.000   96.972      0.95505
 978.000   45.518  1.86075  978.000   97.027      0.95458
 979.000   45.488  1.85976  979.000   97.081      0.95411
 980.000   45.457  1.85878  980.000   97.136      0.95364
 981.000   45.426  1.85780  981.000   97.191      0.95318
 982.000   45.395  1.85683  982.000   97.246      0.95271
 983.000   45.365  1.85585  983.000   97.302      0.95224
 984.000   45.334  1.85487  984.000   97.357      0.95178
 985.000   45.303  1.85390  985.000   97.413      0.95131
 986.000   45.273  1.85292  986.000   97.469      0.95084
 987.000   45.242  1.85194  987.000   97.524      0.95038
 988.000   45.212  1.85097  988.000   97.581      0.94992
 989.000   45.181  1.84999  989.000   97.637      0.94945
 990.000   45.151  1.84901  990.000   97.693      0.94898
 991.000   45.120  1.84804  991.000   97.750      0.94851
 992.000   45.090  1.84706  992.000   97.807      0.94805
 993.000   45.059  1.84608  993.000   97.864      0.94758
 994.000   45.029  1.84510  994.000   97.921      0.94711
 995.000   44.998  1.84413  995.000   97.978      0.94665
 996.000   44.968  1.84315  996.000   98.036      0.94618
 997.000   44.938  1.84218  997.000   98.094      0.94571
 998.000   44.907  1.84120  998.000   98.151      0.94525
 999.000   44.877  1.84022  999.000   98.209      0.94478
1000.000   44.847  1.83925 1000.000   98.268      0.94431
1001.000   44.817  1.83827 1001.000   98.326      0.94385
1002.000   44.786  1.83729 1002.000   98.385      0.94338
1003.000   44.756  1.83632 1003.000   98.443      0.94291
1004.000   44.726  1.83534 1004.000   98.502      0.94245
1005.000   44.696  1.83436 1005.000   98.561      0.94198
1006.000   44.666  1.83339 1006.000   98.620      0.94152
1007.000   44.635  1.83241 1007.000   98.680      0.94105
1008.000   44.605  1.83144 1008.000   98.739      0.94058
1009.000   44.575  1.83046 1009.000   98.799      0.94012
1010.000   44.545  1.82948 1010.000   98.859      0.93965
1011.000   44.515  1.82851 1011.000   98.919      0.93918
1012.000   44.485  1.82752 1012.000   98.979      0.93872
1013.000   44.455  1.82654 1013.000   99.039      0.93825
1014.000   44.425  1.82557 1014.000   99.100      0.93778
1015.000   44.396  1.82459 1015.000   99.161      0.93732
1016.000   44.366  1.82362 1016.000   99.222      0.93685
1017.000   44.336  1.82264 1017.000   99.283      0.93638
1018.000   44.306  1.82166 1018.000   99.344      0.93592
1019.000   44.276  1.82069 1019.000   99.405      0.93545
1020.000   44.246  1.81971 1020.000   99.467      0.93498
1021.000   44.217  1.81874 1021.000   99.529      0.93452
1022.000   44.187  1.81776 1022.000   99.591      0.93405
1023.000   44.157  1.81679 1023.000   99.653      0.93359
1024.000   44.128  1.81581 1024.000   99.715      0.93312
1025.000   44.098  1.81483 1025.000   99.778      0.93265
1026.000   44.068  1.81386 1026.000   99.840      0.93219
1027.000   44.039  1.81288 1027.000   99.903      0.93172
1028.000   44.009  1.81191 1028.000   99.966      0.93125
1029.000   43.980  1.81093 1029.000  100.029      0.93079
1030.000   43.950  1.80996 1030.000  100.092      0.93032
1031.000   43.921  1.80898 1031.000  100.156      0.92985
1032.000   43.891  1.80801 1032.000  100.220      0.92938
1033.000   43.862  1.80703 1033.000  100.283      0.92892
1034.000   43.832  1.80606 1034.000  100.347      0.92845
1035.000   43.803  1.80508 1035.000  100.412      0.92798
1036.000   43.774  1.80411 1036.000  100.476      0.92752
1037.000   43.745  1.80313 1037.000  100.541      0.92706
1038.000   43.715  1.80216 1038.000  100.605      0.92659
1039.000   43.686  1.80118 1039.000  100.670      0.92612
1040.000   43.657  1.80021 1040.000  100.735      0.92565
1041.000   43.628  1.79923 1041.000  100.800      0.92519
1042.000   43.598  1.79826 1042.000  100.866      0.92472
1043.000   43.569  1.79728 1043.000  100.932      0.92425
1044.000   43.540  1.79631 1044.000  100.997      0.92379
1045.000   43.511  1.79533 1045.000  101.063      0.92332
1046.000   43.482  1.79435 1046.000  101.129      0.92285
1047.000   43.453  1.79337 1047.000  101.196      0.92239
1048.000   43.424  1.79240 1048.000  101.262      0.92192
1049.000   43.395  1.79142 1049.000  101.329      0.92145
1050.000   43.366  1.79045 1050.000  101.396      0.92099
1051.000   43.337  1.78947 1051.000  101.463      0.92052
1052.000   43.309  1.78850 1052.000  101.530      0.92006
1053.000   43.280  1.78752 1053.000  101.597      0.91959
1054.000   43.251  1.78655 1054.000  101.665      0.91912
1055.000   43.222  1.78557 1055.000  101.732      0.91866
1056.000   43.194  1.78460 1056.000  101.800      0.91819
1057.000   43.165  1.78363 1057.000  101.868      0.91772
1058.000   43.136  1.78265 1058.000  101.937      0.91726
1059.000   43.108  1.78168 1059.000  102.005      0.91679
1060.000   43.079  1.78070 1060.000  102.074      0.91632
1061.000   43.050  1.77973 1061.000  102.142      0.91586
1062.000   43.022  1.77875 1062.000  102.211      0.91539
1063.000   42.993  1.77778 1063.000  102.281      0.91492
1064.000   42.965  1.77681 1064.000  102.350      0.91445
1065.000   42.937  1.77583 1065.000  102.419      0.91399
1066.000   42.908  1.77486 1066.000  102.489      0.91352
1067.000   42.880  1.77388 1067.000  102.559      0.91306
1068.000   42.851  1.77291 1068.000  102.629      0.91259
1069.000   42.823  1.77194 1069.000  102.699      0.91213
1070.000   42.795  1.77096 1070.000  102.770      0.91166
1071.000   42.767  1.76999 1071.000  102.840      0.91119
1072.000   42.739  1.76901 1072.000  102.911      0.91072
1073.000   42.710  1.76804 1073.000  102.982      0.91026
1074.000   42.682  1.76707 1074.000  103.053      0.90979
1075.000   42.654  1.76609 1075.000  103.124      0.90932
1076.000   42.626  1.76512 1076.000  103.196      0.90886
1077.000   42.598  1.76415 1077.000  103.267      0.90839
1078.000   42.570  1.76317 1078.000  103.339      0.90792
1079.000   42.542  1.76220 1079.000  103.411      0.90746
1080.000   42.514  1.76122 1080.000  103.484      0.90699
1081.000   42.486  1.76024 1081.000  103.556      0.90653
1082.000   42.459  1.75927 1082.000  103.628      0.90606
1083.000   42.431  1.75829 1083.000  103.701      0.90559
1084.000   42.403  1.75732 1084.000  103.774      0.90513
1085.000   42.375  1.75635 1085.000  103.847      0.90466
1086.000   42.348  1.75537 1086.000  103.921      0.90419
1087.000   42.320  1.75440 1087.000  103.994      0.90373
1088.000   42.292  1.75343 1088.000  104.068      0.90326
1089.000   42.265  1.75245 1089.000  104.142      0.90279
1090.000   42.237  1.75148 1090.000  104.216      0.90233
1091.000   42.210  1.75051 1091.000  104.290      0.90186
1092.000   42.182  1.74953 1092.000  104.364      0.90139
1093.000   42.155  1.74856 1093.000  104.439      0.90092
1094.000   42.127  1.74759 1094.000  104.514      0.90046
1095.000   42.100  1.74662 1095.000  104.588      0.90000
1096.000   42.073  1.74564 1096.000  104.664      0.89953
1097.000   42.045  1.74467 1097.000  104.739      0.89906
1098.000   42.018  1.74370 1098.000  104.814      0.89860
1099.000   41.991  1.74272 1099.000  104.890      0.89813
1100.000   41.964  1.74175 1100.000  104.966      0.89766
1101.000   41.937  1.74078 1101.000  105.042      0.89719
1102.000   41.910  1.73981 1102.000  105.118      0.89673
1103.000   41.883  1.73883 1103.000  105.195      0.89626
1104.000   41.856  1.73786 1104.000  105.271      0.89579
1105.000   41.829  1.73689 1105.000  105.348      0.89533
1106.000   41.802  1.73591 1106.000  105.425      0.89486
1107.000   41.775  1.73494 1107.000  105.502      0.89440
1108.000   41.748  1.73397 1108.000  105.580      0.89393
1109.000   41.721  1.73300 1109.000  105.657      0.89346
1110.000   41.694  1.73202 1110.000  105.735      0.89300
1111.000   41.668  1.73105 1111.000  105.813      0.89253
1112.000   41.641  1.73008 1112.000  105.891      0.89206
1113.000   41.614  1.72911 1113.000  105.969      0.89160
1114.000   41.588  1.72814 1114.000  106.047      0.89113
1115.000   41.561  1.72716 1115.000  106.126      0.89066
1116.000   41.535  1.72619 1116.000  106.205      0.89020
1117.000   41.508  1.72522 1117.000  106.284      0.88973
1118.000   41.482  1.72424 1118.000  106.363      0.88926
1119.000   41.455  1.72326 1119.000  106.443      0.88879
1120.000   41.429  1.72229 1120.000  106.522      0.88833
1121.000   41.403  1.72132 1121.000  106.602      0.88787
1122.000   41.376  1.72035 1122.000  106.682      0.88740
1123.000   41.350  1.71938 1123.000  106.762      0.88693
1124.000   41.324  1.71840 1124.000  106.842      0.88647
1125.000   41.298  1.71743 1125.000  106.923      0.88600
1126.000   41.272  1.71646 1126.000  107.004      0.88553
1127.000   41.246  1.71549 1127.000  107.085      0.88506
1128.000   41.220  1.71452 1128.000  107.166      0.88460
1129.000   41.194  1.71354 1129.000  107.247      0.88413
1130.000   41.168  1.71257 1130.000  107.328      0.88366
1131.000   41.142  1.71160 1131.000  107.410      0.88320
1132.000   41.116  1.71063 1132.000  107.492      0.88273
1133.000   41.090  1.70966 1133.000  107.574      0.88227
1134.000   41.065  1.70869 1134.000  107.656      0.88180
1135.000   41.039  1.70772 1135.000  107.739      0.88133
1136.000   41.013  1.70674 1136.000  107.821      0.88087
1137.000   40.988  1.70577 1137.000  107.904      0.88040
1138.000   40.962  1.70480 1138.000  107.987      0.87993
1139.000   40.937  1.70383 1139.000  108.070      0.87947
1140.000   40.911  1.70286 1140.000  108.153      0.87900
1141.000   40.886  1.70189 1141.000  108.237      0.87853
1142.000   40.860  1.70092 1142.000  108.321      0.87806
1143.000   40.835  1.69994 1143.000  108.405      0.87760
1144.000   40.810  1.69897 1144.000  108.489      0.87713
1145.000   40.784  1.69800 1145.000  108.573      0.87667
1146.000   40.759  1.69703 1146.000  108.658      0.87620
1147.000   40.734  1.69606 1147.000  108.742      0.87574
1148.000   40.709  1.69509 1148.000  108.827      0.87527
1149.000   40.684  1.69412 1149.000  108.912      0.87480
1150.000   40.659  1.69315 1150.000  108.998      0.87433
1151.000   40.634  1.69218 1151.000  109.083      0.87387
1152.000   40.609  1.69120 1152.000  109.169      0.87340
1153.000   40.584  1.69023 1153.000  109.255      0.87293
1154.000   40.559  1.68926 1154.000  109.341      0.87247
1155.000   40.535  1.68829 1155.000  109.427      0.87200
1156.000   40.510  1.68732 1156.000  109.513      0.87154
1157.000   40.485  1.68634 1157.000  109.600      0.87107
1158.000   40.461  1.68537 1158.000  109.687      0.87060
1159.000   40.436  1.68440 1159.000  109.774      0.87014
1160.000   40.412  1.68343 1160.000  109.861      0.86967
1161.000   40.387  1.68246 1161.000  109.948      0.86920
1162.000   40.363  1.68149 1162.000  110.036      0.86874
1163.000   40.338  1.68052 1163.000  110.124      0.86827
1164.000   40.314  1.67955 1164.000  110.212      0.86780
1165.000   40.290  1.67858 1165.000  110.300      0.86733
1166.000   40.266  1.67761 1166.000  110.388      0.86687
1167.000   40.242  1.67663 1167.000  110.477      0.86640
1168.000   40.217  1.67566 1168.000  110.566      0.86594
1169.000   40.193  1.67469 1169.000  110.655      0.86547
1170.000   40.169  1.67372 1170.000  110.744      0.86500
1171.000   40.145  1.67275 1171.000  110.833      0.86454
1172.000   40.122  1.67178 1172.000  110.923      0.86407
1173.000   40.098  1.67081 1173.000  111.012      0.86360
1174.000   40.074  1.66984 1174.000  111.102      0.86314
1175.000   40.050  1.66887 1175.000  111.192      0.86267
1176.000   40.026  1.66790 1176.000  111.283      0.86220
1177.000   40.003  1.66693 1177.000  111.373      0.86174
1178.000   39.979  1.66596 1178.000  111.464      0.86127
1179.000   39.956  1.66499 1179.000  111.555      0.86081
1180.000   39.932  1.66402 1180.000  111.646      0.86034
1181.000   39.909  1.66305 1181.000  111.737      0.85987
1182.000   39.885  1.66208 1182.000  111.829      0.85941
1183.000   39.862  1.66111 1183.000  111.920      0.85894
1184.000   39.839  1.66014 1184.000  112.012      0.85847
1185.000   39.816  1.65917 1185.000  112.104      0.85800
1186.000   39.792  1.65821 1186.000  112.197      0.85754
1187.000   39.769  1.65724 1187.000  112.289      0.85707
1188.000   39.746  1.65627 1188.000  112.382      0.85660
1189.000   39.723  1.65530 1189.000  112.475      0.85614
1190.000   39.700  1.65433 1190.000  112.568      0.85567
1191.000   39.678  1.65336 1191.000  112.661      0.85521
1192.000   39.655  1.65239 1192.000  112.755      0.85474
1193.000   39.632  1.65142 1193.000  112.848      0.85427
1194.000   39.609  1.65045 1194.000  112.942      0.85381
1195.000   39.587  1.64948 1195.000  113.036      0.85334
1196.000   39.564  1.64851 1196.000  113.131      0.85287
1197.000   39.541  1.64754 1197.000  113.225      0.85241
1198.000   39.519  1.64657 1198.000  113.320      0.85194
1199.000   39.497  1.64559 1199.000  113.415      0.85147
1200.000   39.474  1.64462 1200.000  113.510      0.85101
1201.000   39.452  1.64365 1201.000  113.605      0.85054
1202.000   39.430  1.64268 1202.000  113.700      0.85008
1203.000   39.407  1.64172 1203.000  113.796      0.84961
1204.000   39.385  1.64075 1204.000  113.892      0.84914
1205.000   39.363  1.63978 1205.000  113.988      0.84867
1206.000   39.341  1.63881 1206.000  114.084      0.84821
1207.000   39.319  1.63784 1207.000  114.181      0.84774
1208.000   39.297  1.63687 1208.000  114.277      0.84727
1209.000   39.276  1.63590 1209.000  114.374      0.84681
1210.000   39.254  1.63493 1210.000  114.471      0.84634
1211.000   39.232  1.63397 1211.000  114.569      0.84588
1212.000   39.210  1.63300 1212.000  114.666      0.84541
1213.000   39.189  1.63203 1213.000  114.764      0.84494
1214.000   39.167  1.63106 1214.000  114.862      0.84448
1215.000   39.146  1.63009 1215.000  114.960      0.84401
1216.000   39.124  1.62912 1216.000  115.058      0.84354
1217.000   39.103  1.62815 1217.000  115.156      0.84307
1218.000   39.082  1.62718 1218.000  115.255      0.84261
1219.000   39.061  1.62622 1219.000  115.354      0.84214
1220.000   39.039  1.62525 1220.000  115.453      0.84167
1221.000   39.018  1.62428 1221.000  115.552      0.84121
1222.000   38.997  1.62331 1222.000  115.652      0.84074
1223.000   38.976  1.62234 1223.000  115.752      0.84028
1224.000   38.955  1.62137 1224.000  115.852      0.83981
1225.000   38.935  1.62041 1225.000  115.952      0.83934
1226.000   38.914  1.61944 1226.000  116.052      0.83888
1227.000   38.893  1.61847 1227.000  116.153      0.83841
1228.000   38.872  1.61750 1228.000  116.253      0.83794
1229.000   38.852  1.61653 1229.000  116.354      0.83748
1230.000   38.831  1.61557 1230.000  116.455      0.83701
1231.000   38.811  1.61460 1231.000  116.557      0.83655
1232.000   38.790  1.61363 1232.000  116.658      0.83608
1233.000   38.770  1.61266 1233.000  116.760      0.83561
1234.000   38.750  1.61169 1234.000  116.862      0.83514
1235.000   38.730  1.61073 1235.000  116.964      0.83468
1236.000   38.709  1.60976 1236.000  117.066      0.83421
1237.000   38.689  1.60879 1237.000  117.169      0.83374
1238.000   38.669  1.60782 1238.000  117.272      0.83328
1239.000   38.649  1.60686 1239.000  117.375      0.83281
1240.000   38.629  1.60589 1240.000  117.478      0.83234
1241.000   38.610  1.60492 1241.000  117.581      0.83188
1242.000   38.590  1.60395 1242.000  117.685      0.83141
1243.000   38.570  1.60298 1243.000  117.789      0.83095
1244.000   38.551  1.60202 1244.000  117.893      0.83048
1245.000   38.531  1.60105 1245.000  117.997      0.83001
1246.000   38.512  1.60008 1246.000  118.101      0.82954
1247.000   38.492  1.59910 1247.000  118.206      0.82908
1248.000   38.473  1.59814 1248.000  118.311      0.82861
1249.000   38.454  1.59717 1249.000  118.416      0.82814
1250.000   38.434  1.59620 1250.000  118.521      0.82768
1251.000   38.415  1.59523 1251.000  118.626      0.82721
1252.000   38.396  1.59427 1252.000  118.732      0.82675
1253.000   38.377  1.59330 1253.000  118.838      0.82628
1254.000   38.358  1.59233 1254.000  118.944      0.82581
1255.000   38.339  1.59137 1255.000  119.050      0.82535
1256.000   38.321  1.59040 1256.000  119.157      0.82488
1257.000   38.302  1.58943 1257.000  119.264      0.82441
1258.000   38.283  1.58846 1258.000  119.370      0.82394
1259.000   38.265  1.58750 1259.000  119.478      0.82348
1260.000   38.246  1.58653 1260.000  119.585      0.82302
1261.000   38.228  1.58556 1261.000  119.692      0.82255
1262.000   38.209  1.58460 1262.000  119.800      0.82208
1263.000   38.191  1.58363 1263.000  119.908      0.82161
1264.000   38.173  1.58266 1264.000  120.016      0.82115
1265.000   38.155  1.58170 1265.000  120.125      0.82068
1266.000   38.137  1.58073 1266.000  120.233      0.82021
1267.000   38.119  1.57976 1267.000  120.342      0.81975
1268.000   38.101  1.57880 1268.000  120.451      0.81928
1269.000   38.083  1.57783 1269.000  120.560      0.81882
1270.000   38.065  1.57686 1270.000  120.670      0.81835
1271.000   38.047  1.57590 1271.000  120.779      0.81788
1272.000   38.030  1.57493 1272.000  120.889      0.81742
1273.000   38.012  1.57396 1273.000  120.999      0.81695
1274.000   37.995  1.57300 1274.000  121.109      0.81648
1275.000   37.977  1.57203 1275.000  121.220      0.81601
1276.000   37.960  1.57106 1276.000  121.331      0.81555
1277.000   37.943  1.57010 1277.000  121.442      0.81508
1278.000   37.926  1.56913 1278.000  121.553      0.81462
1279.000   37.908  1.56817 1279.000  121.664      0.81415
1280.000   37.891  1.56720 1280.000  121.776      0.81368
1281.000   37.874  1.56623 1281.000  121.887      0.81322
1282.000   37.858  1.56527 1282.000  121.999      0.81275
1283.000   37.841  1.56430 1283.000  122.111      0.81228
1284.000   37.824  1.56334 1284.000  122.224      0.81181
1285.000   37.807  1.56237 1285.000  122.336      0.81135
1286.000   37.791  1.56140 1286.000  122.449      0.81088
1287.000   37.774  1.56044 1287.000  122.562      0.81042
1288.000   37.758  1.55947 1288.000  122.675      0.80995
1289.000   37.742  1.55851 1289.000  122.789      0.80948
1290.000   37.725  1.55754 1290.000  122.903      0.80902
1291.000   37.709  1.55657 1291.000  123.016      0.80855
1292.000   37.693  1.55561 1292.000  123.131      0.80808
1293.000   37.677  1.55464 1293.000  123.245      0.80762
1294.000   37.661  1.55368 1294.000  123.359      0.80715
1295.000   37.645  1.55271 1295.000  123.474      0.80668
1296.000   37.629  1.55175 1296.000  123.589      0.80622
1297.000   37.614  1.55078 1297.000  123.704      0.80575
1298.000   37.598  1.54981 1298.000  123.820      0.80528
1299.000   37.583  1.54885 1299.000  123.935      0.80482
1300.000   37.567  1.54788 1300.000  124.051      0.80435
1301.000   37.552  1.54692 1301.000  124.167      0.80388
1302.000   37.536  1.54595 1302.000  124.283      0.80342
1303.000   37.521  1.54499 1303.000  124.400      0.80295
1304.000   37.506  1.54402 1304.000  124.516      0.80249
1305.000   37.491  1.54305 1305.000  124.633      0.80202
1306.000   37.476  1.54208 1306.000  124.750      0.80155
1307.000   37.461  1.54111 1307.000  124.868      0.80109
1308.000   37.446  1.54015 1308.000  124.985      0.80062
1309.000   37.432  1.53918 1309.000  125.103      0.80015
1310.000   37.417  1.53822 1310.000  125.221      0.79968
1311.000   37.402  1.53725 1311.000  125.339      0.79922
1312.000   37.388  1.53629 1312.000  125.457      0.79875
1313.000   37.373  1.53532 1313.000  125.576      0.79829
1314.000   37.359  1.53436 1314.000  125.695      0.79782
1315.000   37.345  1.53339 1315.000  125.814      0.79735
1316.000   37.331  1.53243 1316.000  125.933      0.79689
1317.000   37.317  1.53146 1317.000  126.053      0.79642
1318.000   37.303  1.53050 1318.000  126.172      0.79595
1319.000   37.289  1.52954 1319.000  126.292      0.79548
1320.000   37.275  1.52857 1320.000  126.412      0.79502
1321.000   37.261  1.52761 1321.000  126.533      0.79455
1322.000   37.248  1.52664 1322.000  126.653      0.79409
1323.000   37.234  1.52568 1323.000  126.774      0.79362
1324.000   37.221  1.52471 1324.000  126.895      0.79315
1325.000   37.207  1.52375 1325.000  127.016      0.79269
1326.000   37.194  1.52278 1326.000  127.138      0.79222
1327.000   37.181  1.52182 1327.000  127.259      0.79175
1328.000   37.168  1.52085 1328.000  127.381      0.79128
1329.000   37.155  1.51989 1329.000  127.503      0.79082
1330.000   37.142  1.51892 1330.000  127.626      0.79035
1331.000   37.129  1.51796 1331.000  127.748      0.78989
1332.000   37.116  1.51700 1332.000  127.871      0.78942
1333.000   37.104  1.51603 1333.000  127.994      0.78895
1334.000   37.091  1.51507 1334.000  128.117      0.78849
1335.000   37.079  1.51410 1335.000  128.241      0.78802
1336.000   37.066  1.51314 1336.000  128.364      0.78755
1337.000   37.054  1.51218 1337.000  128.488      0.78708
1338.000   37.042  1.51121 1338.000  128.612      0.78662
1339.000   37.029  1.51025 1339.000  128.737      0.78615
1340.000   37.017  1.50928 1340.000  128.861      0.78569
1341.000   37.006  1.50832 1341.000  128.986      0.78522
1342.000   36.994  1.50735 1342.000  129.111      0.78475
1343.000   36.982  1.50639 1343.000  129.236      0.78429
1344.000   36.970  1.50543 1344.000  129.361      0.78382
1345.000   36.959  1.50446 1345.000  129.487      0.78335
1346.000   36.947  1.50350 1346.000  129.613      0.78289
1347.000   36.936  1.50254 1347.000  129.739      0.78242
1348.000   36.925  1.50157 1348.000  129.865      0.78195
1349.000   36.913  1.50061 1349.000  129.992      0.78149
1350.000   36.902  1.49964 1350.000  130.118      0.78102
1351.000   36.891  1.49868 1351.000  130.245      0.78055
1352.000   36.880  1.49772 1352.000  130.373      0.78009
1353.000   36.869  1.49675 1353.000  130.500      0.77962
1354.000   36.859  1.49579 1354.000  130.628      0.77916
1355.000   36.848  1.49483 1355.000  130.756      0.77869
1356.000   36.838  1.49386 1356.000  130.884      0.77822
1357.000   36.827  1.49290 1357.000  131.012      0.77775
1358.000   36.817  1.49194 1358.000  131.140      0.77729
1359.000   36.807  1.49097 1359.000  131.269      0.77682
1360.000   36.796  1.49001 1360.000  131.398      0.77635
1361.000   36.786  1.48905 1361.000  131.527      0.77589
1362.000   36.776  1.48808 1362.000  131.657      0.77542
1363.000   36.767  1.48712 1363.000  131.786      0.77496
1364.000   36.757  1.48616 1364.000  131.916      0.77449
1365.000   36.747  1.48519 1365.000  132.046      0.77402
1366.000   36.738  1.48423 1366.000  132.177      0.77355
1367.000   36.728  1.48327 1367.000  132.307      0.77309
1368.000   36.719  1.48230 1368.000  132.438      0.77262
1369.000   36.709  1.48134 1369.000  132.569      0.77216
1370.000   36.700  1.48038 1370.000  132.700      0.77169
1371.000   36.691  1.47942 1371.000  132.832      0.77122
1372.000   36.682  1.47845 1372.000  132.963      0.77075
1373.000   36.673  1.47749 1373.000  133.095      0.77029
1374.000   36.665  1.47653 1374.000  133.227      0.76982
1375.000   36.656  1.47556 1375.000  133.360      0.76935
1376.000   36.647  1.47460 1376.000  133.492      0.76889
1377.000   36.639  1.47364 1377.000  133.625      0.76842
1378.000   36.630  1.47268 1378.000  133.758      0.76796
1379.000   36.622  1.47171 1379.000  133.892      0.76749
1380.000   36.614  1.47075 1380.000  134.025      0.76702
1381.000   36.606  1.46979 1381.000  134.159      0.76655
1382.000   36.598  1.46883 1382.000  134.293      0.76609
1383.000   36.590  1.46786 1383.000  134.427      0.76562
1384.000   36.582  1.46690 1384.000  134.561      0.76516
1385.000   36.575  1.46594 1385.000  134.696      0.76469
1386.000   36.567  1.46498 1386.000  134.831      0.76422
1387.000   36.560  1.46401 1387.000  134.966      0.76376
1388.000   36.552  1.46305 1388.000  135.101      0.76329
1389.000   36.545  1.46209 1389.000  135.237      0.76282
1390.000   36.538  1.46113 1390.000  135.372      0.76235
1391.000   36.531  1.46017 1391.000  135.508      0.76189
1392.000   36.524  1.45920 1392.000  135.645      0.76142
1393.000   36.517  1.45824 1393.000  135.781      0.76096
1394.000   36.511  1.45728 1394.000  135.918      0.76049
1395.000   36.504  1.45632 1395.000  136.055      0.76002
1396.000   36.497  1.45534 1396.000  136.192      0.75955
1397.000   36.491  1.45438 1397.000  136.329      0.75909
1398.000   36.485  1.45342 1398.000  136.467      0.75862
1399.000   36.479  1.45246 1399.000  136.605      0.75816
1400.000   36.473  1.45150 1400.000  136.743      0.75769
1401.000   36.467  1.45054 1401.000  136.881      0.75722
1402.000   36.461  1.44957 1402.000  137.020      0.75676
1403.000   36.455  1.44861 1403.000  137.158      0.75629
1404.000   36.449  1.44765 1404.000  137.297      0.75582
1405.000   36.444  1.44669 1405.000  137.437      0.75535
1406.000   36.438  1.44573 1406.000  137.576      0.75489
1407.000   36.433  1.44477 1407.000  137.716      0.75442
1408.000   36.428  1.44380 1408.000  137.856      0.75396
1409.000   36.423  1.44284 1409.000  137.996      0.75349
1410.000   36.418  1.44188 1410.000  138.136      0.75302
1411.000   36.413  1.44092 1411.000  138.277      0.75255
1412.000   36.408  1.43996 1412.000  138.418      0.75209
1413.000   36.404  1.43900 1413.000  138.559      0.75162
1414.000   36.399  1.43804 1414.000  138.700      0.75116
1415.000   36.395  1.43707 1415.000  138.842      0.75069
1416.000   36.390  1.43611 1416.000  138.983      0.75022
1417.000   36.386  1.43515 1417.000  139.125      0.74975
1418.000   36.382  1.43419 1418.000  139.268      0.74929
1419.000   36.378  1.43323 1419.000  139.410      0.74882
1420.000   36.374  1.43227 1420.000  139.553      0.74836
1421.000   36.371  1.43131 1421.000  139.696      0.74789
1422.000   36.367  1.43035 1422.000  139.839      0.74742
1423.000   36.363  1.42938 1423.000  139.982      0.74696
1424.000   36.360  1.42842 1424.000  140.126      0.74649
1425.000   36.357  1.42746 1425.000  140.270      0.74602
1426.000   36.354  1.42650 1426.000  140.414      0.74555
1427.000   36.351  1.42554 1427.000  140.558      0.74509
1428.000   36.348  1.42458 1428.000  140.703      0.74462
1429.000   36.345  1.42362 1429.000  140.848      0.74416
1430.000   36.342  1.42266 1430.000  140.993      0.74369
1431.000   36.340  1.42170 1431.000  141.138      0.74322
1432.000   36.337  1.42074 1432.000  141.283      0.74275
1433.000   36.335  1.41978 1433.000  141.429      0.74229
1434.000   36.333  1.41882 1434.000  141.575      0.74182
1435.000   36.330  1.41786 1435.000  141.721      0.74136
1436.000   36.328  1.41689 1436.000  141.868      0.74089
1437.000   36.327  1.41593 1437.000  142.015      0.74042
1438.000   36.325  1.41497 1438.000  142.161      0.73995
1439.000   36.323  1.41401 1439.000  142.309      0.73949
1440.000   36.322  1.41305 1440.000  142.456      0.73902
1441.000   36.320  1.41209 1441.000  142.604      0.73856
1442.000   36.319  1.41113 1442.000  142.752      0.73809
1443.000   36.318  1.41017 1443.000  142.900      0.73762
1444.000   36.317  1.40921 1444.000  143.048      0.73715
1445.000   36.316  1.40825 1445.000  143.197      0.73669
1446.000   36.315  1.40729 1446.000  143.345      0.73622
1447.000   36.315  1.40633 1447.000  143.495      0.73575
1448.000   36.314  1.40537 1448.000  143.644      0.73529
1449.000   36.314  1.40441 1449.000  143.793      0.73482
1450.000   36.313  1.40345 1450.000  143.943      0.73436
1451.000   36.313  1.40249 1451.000  144.093      0.73389
1452.000   36.313  1.40153 1452.000  144.243      0.73342
1453.000   36.313  1.40057 1453.000  144.394      0.73295
1454.000   36.313  1.39961 1454.000  144.545      0.73249
1455.000   36.314  1.39865 1455.000  144.696      0.73202
1456.000   36.314  1.39769 1456.000  144.847      0.73156
1457.000   36.315  1.39673 1457.000  144.998      0.73109
1458.000   36.315  1.39577 1458.000  145.150      0.73062
1459.000   36.316  1.39481 1459.000  145.302      0.73015
1460.000   36.317  1.39385 1460.000  145.454      0.72969
1461.000   36.318  1.39289 1461.000  145.606      0.72922
1462.000   36.319  1.39193 1462.000  145.759      0.72876
1463.000   36.321  1.39097 1463.000  145.912      0.72829
1464.000   36.322  1.39001 1464.000  146.065      0.72782
1465.000   36.324  1.38905 1465.000  146.218      0.72735
1466.000   36.325  1.38810 1466.000  146.372      0.72689
1467.000   36.327  1.38714 1467.000  146.526      0.72642
1468.000   36.329  1.38618 1468.000  146.680      0.72596
1469.000   36.331  1.38522 1469.000  146.834      0.72549
1470.000   36.334  1.38426 1470.000  146.989      0.72502
1471.000   36.336  1.38330 1471.000  147.144      0.72455
1472.000   36.338  1.38234 1472.000  147.299      0.72409
1473.000   36.341  1.38138 1473.000  147.454      0.72362
1474.000   36.344  1.38042 1474.000  147.610      0.72316
1475.000   36.347  1.37946 1475.000  147.765      0.72269
1476.000   36.350  1.37850 1476.000  147.921      0.72222
1477.000   36.353  1.37754 1477.000  148.078      0.72175
1478.000   36.356  1.37658 1478.000  148.234      0.72129
1479.000   36.359  1.37563 1479.000  148.391      0.72082
1480.000   36.363  1.37467 1480.000  148.548      0.72036
1481.000   36.367  1.37371 1481.000  148.705      0.71989
1482.000   36.371  1.37275 1482.000  148.862      0.71942
1483.000   36.374  1.37179 1483.000  149.020      0.71895
1484.000   36.379  1.37083 1484.000  149.178      0.71849
1485.000   36.383  1.36987 1485.000  149.336      0.71802
1486.000   36.387  1.36891 1486.000  149.495      0.71755
1487.000   36.392  1.36796 1487.000  149.653      0.71709
1488.000   36.396  1.36700 1488.000  149.812      0.71662
1489.000   36.401  1.36604 1489.000  149.972      0.71615
1490.000   36.406  1.36508 1490.000  150.131      0.71568
1491.000   36.411  1.36412 1491.000  150.291      0.71522
1492.000   36.416  1.36316 1492.000  150.451      0.71475
1493.000   36.421  1.36220 1493.000  150.611      0.71429
1494.000   36.427  1.36125 1494.000  150.771      0.71382
1495.000   36.432  1.36029 1495.000  150.932      0.71335
1496.000   36.438  1.35933 1496.000  151.093      0.71288
1497.000   36.444  1.35837 1497.000  151.254      0.71242
1498.000   36.450  1.35741 1498.000  151.415      0.71195
1499.000   36.456  1.35645 1499.000  151.577      0.71149
1500.000   36.462  1.35550 1500.000  151.739      0.71102
1501.000   36.468  1.35454 1501.000  151.901      0.71055
1502.000   36.475  1.35358 1502.000  152.063      0.71008
1503.000   36.482  1.35262 1503.000  152.226      0.70962
1504.000   36.488  1.35166 1504.000  152.389      0.70915
1505.000   36.495  1.35070 1505.000  152.552      0.70869
1506.000   36.502  1.34976 1506.000  152.715      0.70822
1507.000   36.510  1.34880 1507.000  152.879      0.70775
1508.000   36.517  1.34784 1508.000  153.042      0.70728
1509.000   36.525  1.34688 1509.000  153.207      0.70682
1510.000   36.532  1.34593 1510.000  153.371      0.70635
1511.000   36.540  1.34497 1511.000  153.535      0.70589
1512.000   36.548  1.34401 1512.000  153.700      0.70542
1513.000   36.556  1.34305 1513.000  153.865      0.70495
1514.000   36.564  1.34209 1514.000  154.031      0.70448
1515.000   36.573  1.34114 1515.000  154.196      0.70402
1516.000   36.581  1.34018 1516.000  154.362      0.70355
1517.000   36.590  1.33922 1517.000  154.528      0.70309
1518.000   36.599  1.33826 1518.000  154.694      0.70262
1519.000   36.608  1.33731 1519.000  154.861      0.70215
1520.000   36.617  1.33635 1520.000  155.028      0.70168
1521.000   36.626  1.33539 1521.000  155.195      0.70121
1522.000   36.635  1.33443 1522.000  155.362      0.70075
1523.000   36.645  1.33348 1523.000  155.530      0.70028
1524.000   36.655  1.33252 1524.000  155.698      0.69982
1525.000   36.664  1.33156 1525.000  155.866      0.69935
1526.000   36.674  1.33060 1526.000  156.034      0.69888
1527.000   36.685  1.32965 1527.000  156.203      0.69841
1528.000   36.695  1.32869 1528.000  156.371      0.69795
1529.000   36.705  1.32773 1529.000  156.540      0.69748
1530.000   36.716  1.32678 1530.000  156.710      0.69702
1531.000   36.727  1.32582 1531.000  156.879      0.69655
1532.000   36.738  1.32486 1532.000  157.049      0.69608
1533.000   36.749  1.32390 1533.000  157.219      0.69561
1534.000   36.760  1.32295 1534.000  157.389      0.69515
1535.000   36.771  1.32199 1535.000  157.560      0.69468
1536.000   36.783  1.32103 1536.000  157.731      0.69422
1537.000   36.794  1.32008 1537.000  157.902      0.69375
1538.000   36.806  1.31912 1538.000  158.073      0.69328
1539.000   36.818  1.31816 1539.000  158.245      0.69281
1540.000   36.830  1.31721 1540.000  158.417      0.69234
1541.000   36.842  1.31625 1541.000  158.589      0.69188
1542.000   36.855  1.31529 1542.000  158.761      0.69141
1543.000   36.867  1.31434 1543.000  158.934      0.69095
1544.000   36.880  1.31338 1544.000  159.106      0.69048
1545.000   36.893  1.31242 1545.000  159.279      0.69001
1546.000   36.906  1.31147 1546.000  159.453      0.68954
1547.000   36.919  1.31051 1547.000  159.626      0.68908
1548.000   36.932  1.30955 1548.000  159.800      0.68861
1549.000   36.946  1.30860 1549.000  159.974      0.68815
1550.000   36.959  1.30764 1550.000  160.149      0.68768
1551.000   36.973  1.30668 1551.000  160.323      0.68721
1552.000   36.987  1.30573 1552.000  160.498      0.68674
1553.000   37.001  1.30477 1553.000  160.673      0.68628
1554.000   37.015  1.30381 1554.000  160.849      0.68581
1555.000   37.030  1.30286 1555.000  161.024      0.68534
1556.000   37.044  1.30190 1556.000  161.200      0.68488
1557.000   37.059  1.30095 1557.000  161.376      0.68441
1558.000   37.074  1.29999 1558.000  161.553      0.68395
1559.000   37.089  1.29903 1559.000  161.729      0.68348
1560.000   37.104  1.29808 1560.000  161.906      0.68301
1561.000   37.120  1.29712 1561.000  162.083      0.68254
1562.000   37.135  1.29617 1562.000  162.261      0.68207
1563.000   37.151  1.29521 1563.000  162.438      0.68161
1564.000   37.167  1.29425 1564.000  162.616      0.68114
1565.000   37.183  1.29330 1565.000  162.794      0.68068
1566.000   37.199  1.29234 1566.000  162.973      0.68021
1567.000   37.215  1.29139 1567.000  163.152      0.67974
1568.000   37.232  1.29043 1568.000  163.330      0.67927
1569.000   37.248  1.28947 1569.000  163.510      0.67881
1570.000   37.265  1.28852 1570.000  163.689      0.67834
1571.000   37.282  1.28756 1571.000  163.869      0.67787
1572.000   37.299  1.28661 1572.000  164.049      0.67741
1573.000   37.317  1.28565 1573.000  164.229      0.67694
1574.000   37.334  1.28470 1574.000  164.409      0.67647
1575.000   37.352  1.28374 1575.000  164.590      0.67601
1576.000   37.370  1.28279 1576.000  164.771      0.67554
1577.000   37.388  1.28183 1577.000  164.952      0.67507
1578.000   37.406  1.28087 1578.000  165.134      0.67461
1579.000   37.424  1.27992 1579.000  165.316      0.67414
1580.000   37.443  1.27896 1580.000  165.498      0.67367
1581.000   37.461  1.27801 1581.000  165.680      0.67321
1582.000   37.480  1.27705 1582.000  165.863      0.67274
1583.000   37.499  1.27610 1583.000  166.045      0.67227
1584.000   37.518  1.27515 1584.000  166.228      0.67180
1585.000   37.538  1.27420 1585.000  166.412      0.67134
1586.000   37.557  1.27324 1586.000  166.595      0.67087
1587.000   37.577  1.27229 1587.000  166.779      0.67041
1588.000   37.597  1.27133 1588.000  166.963      0.66994
1589.000   37.617  1.27038 1589.000  167.148      0.66947
1590.000   37.637  1.26942 1590.000  167.332      0.66900
1591.000   37.657  1.26847 1591.000  167.517      0.66854
1592.000   37.678  1.26751 1592.000  167.702      0.66807
1593.000   37.698  1.26656 1593.000  167.888      0.66760
1594.000   37.719  1.26560 1594.000  168.073      0.66714
1595.000   37.740  1.26465 1595.000  168.259      0.66667
1596.000   37.761  1.26369 1596.000  168.445      0.66620
1597.000   37.783  1.26274 1597.000  168.632      0.66574
1598.000   37.804  1.26178 1598.000  168.818      0.66527
1599.000   37.826  1.26083 1599.000  169.005      0.66480
1600.000   37.848  1.25987 1600.000  169.193      0.66433
1601.000   37.870  1.25892 1601.000  169.380      0.66387
1602.000   37.892  1.25796 1602.000  169.568      0.66340
1603.000   37.915  1.25701 1603.000  169.756      0.66293
1604.000   37.937  1.25606 1604.000  169.944      0.66247
1605.000   37.960  1.25510 1605.000  170.133      0.66200
1606.000   37.983  1.25415 1606.000  170.321      0.66153
1607.000   38.006  1.25319 1607.000  170.510      0.66107
1608.000   38.029  1.25224 1608.000  170.700      0.66060
1609.000   38.053  1.25128 1609.000  170.889      0.66013
1610.000   38.077  1.25033 1610.000  171.079      0.65966
1611.000   38.100  1.24938 1611.000  171.269      0.65920
1612.000   38.124  1.24842 1612.000  171.459      0.65873
1613.000   38.149  1.24747 1613.000  171.650      0.65827
1614.000   38.173  1.24651 1614.000  171.841      0.65780
1615.000   38.198  1.24556 1615.000  172.032      0.65733
1616.000   38.222  1.24460 1616.000  172.224      0.65686
1617.000   38.247  1.24365 1617.000  172.415      0.65639
1618.000   38.272  1.24270 1618.000  172.607      0.65593
1619.000   38.298  1.24174 1619.000  172.799      0.65546
1620.000   38.323  1.24079 1620.000  172.992      0.65500
1621.000   38.349  1.23983 1621.000  173.185      0.65453
1622.000   38.374  1.23888 1622.000  173.378      0.65406
1623.000   38.400  1.23793 1623.000  173.571      0.65360
1624.000   38.427  1.23697 1624.000  173.764      0.65313
1625.000   38.453  1.23602 1625.000  173.958      0.65266
1626.000   38.480  1.23507 1626.000  174.152      0.65219
1627.000   38.506  1.23412 1627.000  174.347      0.65172
1628.000   38.533  1.23317 1628.000  174.541      0.65126
1629.000   38.560  1.23221 1629.000  174.736      0.65079
1630.000   38.588  1.23126 1630.000  174.931      0.65033
1631.000   38.615  1.23031 1631.000  175.126      0.64986
1632.000   38.643  1.22935 1632.000  175.322      0.64939
1633.000   38.671  1.22840 1633.000  175.518      0.64893
1634.000   38.699  1.22745 1634.000  175.714      0.64846
1635.000   38.727  1.22649 1635.000  175.911      0.64799
1636.000   38.755  1.22554 1636.000  176.107      0.64752
1637.000   38.784  1.22459 1637.000  176.304      0.64705
1638.000   38.813  1.22363 1638.000  176.502      0.64659
1639.000   38.842  1.22268 1639.000  176.699      0.64612
1640.000   38.871  1.22173 1640.000  176.897      0.64566
1641.000   38.900  1.22077 1641.000  177.095      0.64519
1642.000   38.930  1.21982 1642.000  177.293      0.64472
1643.000   38.960  1.21887 1643.000  177.492      0.64425
1644.000   38.990  1.21791 1644.000  177.691      0.64379
1645.000   39.020  1.21696 1645.000  177.890      0.64332
1646.000   39.050  1.21601 1646.000  178.089      0.64285
1647.000   39.081  1.21506 1647.000  178.289      0.64238
1648.000   39.111  1.21410 1648.000  178.489      0.64192
1649.000   39.142  1.21315 1649.000  178.689      0.64145
1650.000   39.173  1.21220 1650.000  178.889      0.64099
1651.000   39.205  1.21124 1651.000  179.090      0.64052
1652.000   39.236  1.21029 1652.000  179.291      0.64005
1653.000   39.268  1.20934 1653.000  179.492      0.63958
1654.000   39.300  1.20839 1654.000  179.694      0.63912
1655.000   39.332  1.20743 1655.000  179.896      0.63865
1656.000   39.364  1.20648 1656.000  180.098      0.63818
1657.000   39.396  1.20553 1657.000  180.300      0.63771
1658.000   39.429  1.20457 1658.000  180.503      0.63725
1659.000   39.462  1.20362 1659.000  180.706      0.63678
1660.000   39.495  1.20267 1660.000  180.909      0.63632
1661.000   39.528  1.20173 1661.000  181.112      0.63585
1662.000   39.562  1.20078 1662.000  181.316      0.63538
1663.000   39.595  1.19982 1663.000  181.520      0.63492
1664.000   39.629  1.19887 1664.000  181.724      0.63445
1665.000   39.663  1.19792 1665.000  181.929      0.63398
1666.000   39.697  1.19697 1666.000  182.134      0.63351
1667.000   39.732  1.19601 1667.000  182.339      0.63304
1668.000   39.767  1.19506 1668.000  182.544      0.63258
1669.000   39.801  1.19411 1669.000  182.750      0.63211
1670.000   39.836  1.19316 1670.000  182.955      0.63164
1671.000   39.872  1.19220 1671.000  183.162      0.63118
1672.000   39.907  1.19125 1672.000  183.368      0.63071
1673.000   39.943  1.19030 1673.000  183.575      0.63024
1674.000   39.979  1.18935 1674.000  183.782      0.62978
1675.000   40.015  1.18840 1675.000  183.989      0.62931
1676.000   40.051  1.18744 1676.000  184.196      0.62884
1677.000   40.087  1.18649 1677.000  184.404      0.62837
1678.000   40.124  1.18554 1678.000  184.612      0.62791
1679.000   40.161  1.18459 1679.000  184.821      0.62744
1680.000   40.198  1.18364 1680.000  185.029      0.62697
1681.000   40.235  1.18268 1681.000  185.238      0.62650
1682.000   40.273  1.18173 1682.000  185.447      0.62604
1683.000   40.311  1.18078 1683.000  185.657      0.62557
1684.000   40.348  1.17983 1684.000  185.866      0.62511
1685.000   40.387  1.17888 1685.000  186.076      0.62464
1686.000   40.425  1.17793 1686.000  186.287      0.62417
1687.000   40.463  1.17697 1687.000  186.497      0.62370
1688.000   40.502  1.17603 1688.000  186.708      0.62324
1689.000   40.541  1.17508 1689.000  186.919      0.62277
1690.000   40.580  1.17413 1690.000  187.130      0.62230
1691.000   40.620  1.17318 1691.000  187.342      0.62183
1692.000   40.659  1.17223 1692.000  187.554      0.62137
1693.000   40.699  1.17128 1693.000  187.766      0.62090
1694.000   40.739  1.17033 1694.000  187.978      0.62043
1695.000   40.779  1.16937 1695.000  188.191      0.61997
1696.000   40.820  1.16842 1696.000  188.404      0.61950
1697.000   40.860  1.16747 1697.000  188.617      0.61903
1698.000   40.901  1.16652 1698.000  188.831      0.61857
1699.000   40.942  1.16557 1699.000  189.045      0.61810
1700.000   40.984  1.16462 1700.000  189.259      0.61763
1701.000   41.025  1.16367 1701.000  189.473      0.61716
1702.000   41.067  1.16272 1702.000  189.688      0.61670
1703.000   41.109  1.16176 1703.000  189.903      0.61623
1704.000   41.151  1.16081 1704.000  190.118      0.61576
1705.000   41.193  1.15986 1705.000  190.334      0.61529
1706.000   41.236  1.15891 1706.000  190.549      0.61483
1707.000   41.279  1.15796 1707.000  190.765      0.61436
1708.000   41.322  1.15701 1708.000  190.982      0.61389
1709.000   41.365  1.15606 1709.000  191.198      0.61342
1710.000   41.408  1.15511 1710.000  191.415      0.61296
1711.000   41.452  1.15416 1711.000  191.632      0.61249
1712.000   41.496  1.15321 1712.000  191.850      0.61203
1713.000   41.540  1.15227 1713.000  192.068      0.61156
1714.000   41.584  1.15132 1714.000  192.286      0.61109
1715.000   41.629  1.15037 1715.000  192.504      0.61063
1716.000   41.673  1.14941 1716.000  192.722      0.61016
1717.000   41.718  1.14846 1717.000  192.941      0.60969
1718.000   41.764  1.14751 1718.000  193.160      0.60922
1719.000   41.809  1.14656 1719.000  193.380      0.60875
1720.000   41.855  1.14561 1720.000  193.599      0.60829
1721.000   41.901  1.14466 1721.000  193.819      0.60782
1722.000   41.947  1.14371 1722.000  194.040      0.60735
1723.000   41.993  1.14276 1723.000  194.260      0.60688
1724.000   42.039  1.14181 1724.000  194.481      0.60642
1725.000   42.086  1.14086 1725.000  194.702      0.60595
1726.000   42.133  1.13991 1726.000  194.923      0.60548
1727.000   42.180  1.13896 1727.000  195.145      0.60502
1728.000   42.228  1.13801 1728.000  195.367      0.60455
1729.000   42.275  1.13706 1729.000  195.589      0.60408
1730.000   42.323  1.13611 1730.000  195.811      0.60362
1731.000   42.371  1.13516 1731.000  196.034      0.60315
1732.000   42.420  1.13421 1732.000  196.257      0.60268
1733.000   42.468  1.13326 1733.000  196.481      0.60221
1734.000   42.517  1.13232 1734.000  196.704      0.60175
1735.000   42.566  1.13137 1735.000  196.928      0.60128
1736.000   42.615  1.13042 1736.000  197.152      0.60081
1737.000   42.665  1.12947 1737.000  197.377      0.60034
1738.000   42.715  1.12852 1738.000  197.601      0.59988
1739.000   42.765  1.12757 1739.000  197.826      0.59941
1740.000   42.815  1.12662 1740.000  198.052      0.59894
1741.000   42.865  1.12567 1741.000  198.277      0.59847
1742.000   42.916  1.12472 1742.000  198.503      0.59801
1743.000   42.967  1.12377 1743.000  198.729      0.59754
1744.000   43.018  1.12282 1744.000  198.956      0.59707
1745.000   43.069  1.12187 1745.000  199.182      0.59660
1746.000   43.121  1.12092 1746.000  199.409      0.59614
1747.000   43.172  1.11997 1747.000  199.637      0.59567
1748.000   43.224  1.11902 1748.000  199.864      0.59520
1749.000   43.277  1.11807 1749.000  200.092      0.59474
1750.000   43.329  1.11713 1750.000  200.320      0.59427
1751.000   43.382  1.11618 1751.000  200.549      0.59380
1752.000   43.435  1.11523 1752.000  200.777      0.59334
1753.000   43.488  1.11428 1753.000  201.006      0.59287
1754.000   43.542  1.11334 1754.000  201.236      0.59240
1755.000   43.595  1.11239 1755.000  201.465      0.59193
1756.000   43.649  1.11144 1756.000  201.695      0.59147
1757.000   43.703  1.11049 1757.000  201.925      0.59100
1758.000   43.758  1.10954 1758.000  202.156      0.59053
1759.000   43.812  1.10859 1759.000  202.386      0.59006
1760.000   43.867  1.10764 1760.000  202.617      0.58960
1761.000   43.922  1.10669 1761.000  202.849      0.58913
1762.000   43.978  1.10575 1762.000  203.080      0.58866
1763.000   44.033  1.10480 1763.000  203.312      0.58819
1764.000   44.089  1.10385 1764.000  203.544      0.58773
1765.000   44.145  1.10290 1765.000  203.777      0.58726
1766.000   44.202  1.10195 1766.000  204.009      0.58679
1767.000   44.258  1.10100 1767.000  204.242      0.58632
1768.000   44.315  1.10005 1768.000  204.476      0.58585
1769.000   44.372  1.09910 1769.000  204.709      0.58539
1770.000   44.429  1.09815 1770.000  204.943      0.58492
1771.000   44.487  1.09721 1771.000  205.177      0.58445
1772.000   44.545  1.09627 1772.000  205.411      0.58399
1773.000   44.603  1.09532 1773.000  205.646      0.58352
1774.000   44.661  1.09437 1774.000  205.881      0.58305
1775.000   44.719  1.09342 1775.000  206.117      0.58259
1776.000   44.778  1.09247 1776.000  206.352      0.58212
1777.000   44.837  1.09152 1777.000  206.588      0.58165
1778.000   44.896  1.09058 1778.000  206.824      0.58118
1779.000   44.956  1.08963 1779.000  207.061      0.58072
1780.000   45.016  1.08868 1780.000  207.297      0.58025
1781.000   45.076  1.08773 1781.000  207.534      0.57978
1782.000   45.136  1.08678 1782.000  207.772      0.57932
1783.000   45.196  1.08583 1783.000  208.009      0.57885
1784.000   45.257  1.08489 1784.000  208.247      0.57838
1785.000   45.318  1.08394 1785.000  208.485      0.57791
1786.000   45.379  1.08299 1786.000  208.724      0.57745
1787.000   45.441  1.08204 1787.000  208.963      0.57698
1788.000   45.503  1.08110 1788.000  209.202      0.57651
1789.000   45.565  1.08016 1789.000  209.441      0.57604
1790.000   45.627  1.07921 1790.000  209.681      0.57558
1791.000   45.689  1.07826 1791.000  209.921      0.57511
1792.000   45.752  1.07731 1792.000  210.161      0.57464
1793.000   45.815  1.07636 1793.000  210.401      0.57417
1794.000   45.879  1.07542 1794.000  210.642      0.57371
1795.000   45.942  1.07447 1795.000  210.883      0.57324
1796.000   46.006  1.07352 1796.000  211.125      0.57277
1797.000   46.070  1.07257 1797.000  211.366      0.57230
1798.000   46.134  1.07162 1798.000  211.608      0.57184
1799.000   46.199  1.07068 1799.000  211.850      0.57137
1800.000   46.264  1.06973 1800.000  212.093      0.57090
1801.000   46.329  1.06878 1801.000  212.336      0.57043
1802.000   46.394  1.06783 1802.000  212.579      0.56997
1803.000   46.460  1.06689 1803.000  212.822      0.56950
1804.000   46.525  1.06595 1804.000  213.066      0.56903
1805.000   46.591  1.06500 1805.000  213.310      0.56856
1806.000   46.658  1.06405 1806.000  213.554      0.56810
1807.000   46.724  1.06311 1807.000  213.799      0.56763
1808.000   46.791  1.06216 1808.000  214.044      0.56716
1809.000   46.859  1.06121 1809.000  214.289      0.56669
1810.000   46.926  1.06026 1810.000  214.535      0.56623
1811.000   46.994  1.05932 1811.000  214.780      0.56576
1812.000   47.062  1.05837 1812.000  215.026      0.56529
1813.000   47.130  1.05742 1813.000  215.273      0.56482
1814.000   47.198  1.05648 1814.000  215.520      0.56436
1815.000   47.267  1.05553 1815.000  215.766      0.56389
1816.000   47.336  1.05458 1816.000  216.014      0.56342
1817.000   47.405  1.05363 1817.000  216.261      0.56295
1818.000   47.475  1.05269 1818.000  216.509      0.56249
1819.000   47.544  1.05175 1819.000  216.757      0.56202
1820.000   47.615  1.05080 1820.000  217.006      0.56155
1821.000   47.685  1.04986 1821.000  217.254      0.56108
1822.000   47.755  1.04891 1822.000  217.503      0.56062
1823.000   47.826  1.04796 1823.000  217.753      0.56015
1824.000   47.897  1.04701 1824.000  218.002      0.55968
1825.000   47.969  1.04607 1825.000  218.252      0.55921
1826.000   48.040  1.04512 1826.000  218.502      0.55875
1827.000   48.112  1.04417 1827.000  218.753      0.55828
1828.000   48.185  1.04323 1828.000  219.004      0.55781
1829.000   48.257  1.04228 1829.000  219.255      0.55734
1830.000   48.330  1.04133 1830.000  219.506      0.55688
1831.000   48.403  1.04039 1831.000  219.758      0.55641
1832.000   48.476  1.03944 1832.000  220.010      0.55594
1833.000   48.550  1.03850 1833.000  220.262      0.55547
1834.000   48.623  1.03756 1834.000  220.515      0.55501
1835.000   48.698  1.03661 1835.000  220.768      0.55454
1836.000   48.772  1.03567 1836.000  221.021      0.55407
1837.000   48.847  1.03472 1837.000  221.274      0.55360
1838.000   48.922  1.03377 1838.000  221.528      0.00000
1839.000   48.997  1.03283 1839.000  221.782      0.00000
1840.000   49.072  1.03188 1840.000  222.036      0.00000
1841.000   49.148  1.03093 1841.000  222.291      0.00000
1842.000   49.224  1.02999 1842.000  222.546      0.00000
1843.000   49.300  1.02904 1843.000  222.801      0.00000
1844.000   49.377  1.02809 1844.000  223.057      0.00000
1845.000   49.454  1.02715 1845.000  223.313      0.00000
1846.000   49.531  1.02621 1846.000  223.569      0.00000
1847.000   49.608  1.02527 1847.000  223.825      0.00000
1848.000   49.686  1.02432 1848.000  224.082      0.00000
1849.000   49.764  1.02337 1849.000  224.339      0.00000
1850.000   49.842  1.02243 1850.000  224.597      0.00000
1851.000   49.921  1.02148 1851.000  224.854      0.00000
1852.000   50.000  1.02054 1852.000  225.112      0.00000
1853.000   50.079  1.01959 1853.000  225.370      0.00000
1854.000   50.158  1.01864 1854.000  225.629      0.00000
1855.000   50.238  1.01770 1855.000  225.888      0.00000
1856.000   50.318  1.01675 1856.000  226.147      0.00000
1857.000   50.398  1.01581 1857.000  226.407      0.00000
1858.000   50.478  1.01486 1858.000  226.666      0.00000
1859.000   50.559  1.01393 1859.000  226.926      0.00000
1860.000   50.640  1.01298 1860.000  227.187      0.00000
1861.000   50.722  1.01203 1861.000  227.447      0.00000
1862.000   50.803  1.01109 1862.000  227.708      0.00000
1863.000   50.885  1.01014 1863.000  227.970      0.00000
1864.000   50.968  1.00920 1864.000  228.231      0.00000
1865.000   51.050  1.00825 1865.000  228.493      0.00000
1866.000   51.133  1.00731 1866.000  228.755      0.00000
1867.000   51.216  1.00636 1867.000  229.018      0.00000
1868.000   51.299  1.00541 1868.000  229.281      0.00000
1869.000   51.383  1.00447 1869.000  229.544      0.00000
1870.000   51.467  1.00352 1870.000  229.807      0.00000
1871.000   51.551  1.00259 1871.000  230.071      0.00000
1872.000   51.636  1.00164 1872.000  230.335      0.00000
1873.000   51.721  1.00070 1873.000  230.599      0.00000
1874.000   51.806  0.99975 1874.000  230.864      0.00000
1875.000   51.891  0.99881 1875.000  231.129      0.00000
1876.000   51.977  0.99786 1876.000  231.394      0.00000
1877.000   52.063  0.99692 1877.000  231.659      0.00000
1878.000   52.149  0.99597 1878.000  231.925      0.00000
1879.000   52.236  0.99503 1879.000  232.191      0.00000
1880.000   52.323  0.99408 1880.000  232.458      0.00000
1881.000   52.410  0.99314 1881.000  232.724      0.00000
1882.000   52.498  0.99219 1882.000  232.991      0.00000
1883.000   52.585  0.99126 1883.000  233.259      0.00000
1884.000   52.673  0.99031 1884.000  233.526      0.00000
1885.000   52.762  0.98937 1885.000  233.794      0.00000
1886.000   52.851  0.98842 1886.000  234.063      0.00000
1887.000   52.939  0.98748 1887.000  234.331      0.00000
1888.000   53.029  0.98653 1888.000  234.600      0.00000
1889.000   53.118  0.98559 1889.000  234.869      0.00000
1890.000   53.208  0.98464 1890.000  235.139      0.00000
1891.000   53.298  0.98370 1891.000  235.409      0.00000
1892.000   53.389  0.98275 1892.000  235.679      0.00000
1893.000   53.480  0.98181 1893.000  235.949      0.00000
1894.000   53.571  0.98088 1894.000  236.220      0.00000
1895.000   53.662  0.97993 1895.000  236.491      0.00000
1896.000   53.754  0.97899 1896.000  236.762      0.00000
1897.000   53.846  0.97804 1897.000  237.034      0.00000
1898.000   53.938  0.97710 1898.000  237.306      0.00000
1899.000   54.031  0.97615 1899.000  237.578      0.00000
1900.000   54.124  0.97521 1900.000  237.851      0.00000
1901.000   54.217  0.97426 1901.000  238.123      0.00000
1902.000   54.310  0.97332 1902.000  238.397      0.00000
1903.000   54.404  0.97238 1903.000  238.670      0.00000
1904.000   54.498  0.97143 1904.000  238.944      0.00000
1905.000   54.593  0.97050 1905.000  239.218      0.00000
1906.000   54.687  0.96955 1906.000  239.492      0.00000
1907.000   54.782  0.96861 1907.000  239.767      0.00000
1908.000   54.878  0.96767 1908.000  240.042      0.00000
1909.000   54.973  0.96672 1909.000  240.317      0.00000
1910.000   55.069  0.96578 1910.000  240.593      0.00000
1911.000   55.166  0.96483 1911.000  240.869      0.00000
1912.000   55.262  0.96389 1912.000  241.145      0.00000
1913.000   55.359  0.96294 1913.000  241.422      0.00000
1914.000   55.456  0.96200 1914.000  241.699      0.00000
1915.000   55.554  0.96107 1915.000  241.976      0.00000
1916.000   55.652  0.96012 1916.000  242.253      0.00000
1917.000   55.750  0.95918 1917.000  242.531      0.00000
1918.000   55.849  0.95824 1918.000  242.809      0.00000
1919.000   55.947  0.95729 1919.000  243.088      0.00000
1920.000   56.046  0.95635 1920.000  243.367      0.00000
1921.000   56.146  0.95540 1921.000  243.646      0.00000
1922.000   56.246  0.95446 1922.000  243.925      0.00000
1923.000   56.346  0.95352 1923.000  244.205      0.00000
1924.000   56.446  0.95257 1924.000  244.485      0.00000
1925.000   56.547  0.95164 1925.000  244.765      0.00000
1926.000   56.648  0.95070 1926.000  245.046      0.00000
1927.000   56.749  0.94975 1927.000  245.327      0.00000
1928.000   56.851  0.94881 1928.000  245.608      0.00000
1929.000   56.953  0.94787 1929.000  245.889      0.00000
1930.000   57.055  0.94692 1930.000  246.171      0.00000
1931.000   57.157  0.94598 1931.000  246.453      0.00000
1932.000   57.260  0.94504 1932.000  246.736      0.00000
1933.000   57.364  0.94409 1933.000  247.019      0.00000
1934.000   57.467  0.94315 1934.000  247.302      0.00000
1935.000   57.571  0.94222 1935.000  247.585      0.00000
1936.000   57.675  0.94127 1936.000  247.869      0.00000
1937.000   57.780  0.94033 1937.000  248.153      0.00000
1938.000   57.885  0.93939 1938.000  248.437      0.00000
1939.000   57.990  0.93844 1939.000  248.722      0.00000
1940.000   58.095  0.93750 1940.000  249.007      0.00000
1941.000   58.201  0.93656 1941.000  249.292      0.00000
1942.000   58.307  0.93561 1942.000  249.578      0.00000
1943.000   58.414  0.93467 1943.000  249.864      0.00000
1944.000   58.521  0.93374 1944.000  250.150      0.00000
1945.000   58.628  0.93280 1945.000  250.437      0.00000
1946.000   58.735  0.93185 1946.000  250.724      0.00000
1947.000   58.843  0.93091 1947.000  251.011      0.00000
1948.000   58.951  0.92997 1948.000  251.298      0.00000
1949.000   59.060  0.92902 1949.000  251.586      0.00000
1950.000   59.168  0.92808 1950.000  251.874      0.00000
1951.000   59.278  0.92714 1951.000  252.163      0.00000
1952.000   59.387  0.92620 1952.000  252.452      0.00000
1953.000   59.497  0.92525 1953.000  252.741      0.00000
1954.000   59.607  0.92432 1954.000  253.030      0.00000
1955.000   59.717  0.92338 1955.000  253.320      0.00000
1956.000   59.828  0.92244 1956.000  253.610      0.00000
1957.000   59.939  0.92149 1957.000  253.900      0.00000
1958.000   60.051  0.92055 1958.000  254.191      0.00000
1959.000   60.162  0.91961 1959.000  254.482      0.00000
1960.000   60.275  0.91867 1960.000  254.773      0.00000
1961.000   60.387  0.91772 1961.000  255.065      0.00000
1962.000   60.500  0.91678 1962.000  255.357      0.00000
1963.000   60.613  0.91585 1963.000  255.649      0.00000
1964.000   60.726  0.91491 1964.000  255.942      0.00000
1965.000   60.840  0.91396 1965.000  256.235      0.00000
1966.000   60.954  0.91302 1966.000  256.528      0.00000
1967.000   61.069  0.91208 1967.000  256.821      0.00000
1968.000   61.184  0.91114 1968.000  257.115      0.00000
1969.000   61.299  0.91019 1969.000  257.409      0.00000
1970.000   61.414  0.90925 1970.000  257.704      0.00000
1971.000   61.530  0.90832 1971.000  257.999      0.00000
1972.000   61.646  0.90738 1972.000  258.294      0.00000
1973.000   61.763  0.90644 1973.000  258.589      0.00000
1974.000   61.880  0.90549 1974.000  258.885      0.00000
1975.000   61.997  0.90455 1975.000  259.181      0.00000
1976.000   62.114  0.90361 1976.000  259.478      0.00000
1977.000   62.232  0.90267 1977.000  259.774      0.00000
1978.000   62.351  0.90173 1978.000  260.071      0.00000
1979.000   62.469  0.90078 1979.000  260.369      0.00000
1980.000   62.588  0.89985 1980.000  260.666      0.00000
1981.000   62.707  0.89891 1981.000  260.964      0.00000
1982.000   62.827  0.89797 1982.000  261.263      0.00000
1983.000   62.947  0.89703 1983.000  261.561      0.00000
1984.000   63.067  0.89609 1984.000  261.860      0.00000
1985.000   63.188  0.89514 1985.000  262.160      0.00000
1986.000   63.309  0.89420 1986.000  262.459      0.00000
1987.000   63.430  0.89326 1987.000  262.759      0.00000
1988.000   63.552  0.89233 1988.000  263.059      0.00000
1989.000   63.674  0.89139 1989.000  263.360      0.00000
1990.000   63.797  0.89045 1990.000  263.661      0.00000
1991.000   63.919  0.88951 1991.000  263.962      0.00000
1992.000   64.043  0.88856 1992.000  264.264      0.00000
1993.000   64.166  0.88762 1993.000  264.566      0.00000
1994.000   64.290  0.88668 1994.000  264.868      0.00000
1995.000   64.414  0.88574 1995.000  265.170      0.00000
1996.000   64.539  0.88481 1996.000  265.473      0.00000
1997.000   64.663  0.88387 1997.000  265.776      0.00000
1998.000   64.789  0.88293 1998.000  266.080      0.00000
1999.000   64.914  0.88198 1999.000  266.384      0.00000
2000.000   65.040  0.88104 2000.000  266.688      0.00000
2001.000   65.167  0.88010 2001.000  266.992      0.00000
2002.000   65.293  0.87916 2002.000  267.297      0.00000
2003.000   65.420  0.87822 2003.000  267.602      0.00000
2004.000   65.548  0.87729 2004.000  267.907      0.00000
2005.000   65.675  0.87635 2005.000  268.213      0.00000
2006.000   65.804  0.87541 2006.000  268.519      0.00000
2007.000   65.932  0.87447 2007.000  268.826      0.00000
2008.000   66.061  0.87352 2008.000  269.132      0.00000
2009.000   66.190  0.87258 2009.000  269.439      0.00000
2010.000   66.320  0.87164 2010.000  269.747      0.00000
2011.000   66.450  0.87070 2011.000  270.054      0.00000
2012.000   66.580  0.86977 2012.000  270.363      0.00000
2013.000   66.710  0.86883 2013.000  270.671      0.00000
2014.000   66.841  0.86789 2014.000  270.980      0.00000
2015.000   66.973  0.86695 2015.000  271.289      0.00000
2016.000   67.105  0.86601 2016.000  271.598      0.00000
2017.000   67.237  0.86507 2017.000  271.908      0.00000
2018.000   67.369  0.86413 2018.000  272.218      0.00000
2019.000   67.502  0.86320 2019.000  272.528      0.00000
2020.000   67.635  0.86226 2020.000  272.838      0.00000
2021.000   67.769  0.86132 2021.000  273.149      0.00000
2022.000   67.903  0.86037 2022.000  273.461      0.00000
2023.000   68.037  0.85943 2023.000  273.772      0.00000
2024.000   68.172  0.85849 2024.000  274.084      0.00000
2025.000   68.307  0.85755 2025.000  274.397      0.00000
2026.000   68.442  0.85661 2026.000  274.709      0.00000
2027.000   68.578  0.85568 2027.000  275.022      0.00000
2028.000   68.714  0.85474 2028.000  275.335      0.00000
2029.000   68.851  0.85380 2029.000  275.649      0.00000
2030.000   68.988  0.85286 2030.000  275.963      0.00000
2031.000   69.125  0.85192 2031.000  276.277      0.00000
2032.000   69.263  0.85098 2032.000  276.592      0.00000
2033.000   69.401  0.85004 2033.000  276.906      0.00000
2034.000   69.539  0.84911 2034.000  277.222      0.00000
2035.000   69.678  0.84817 2035.000  277.537      0.00000
2036.000   69.817  0.84723 2036.000  277.853      0.00000
2037.000   69.957  0.84629 2037.000  278.169      0.00000
2038.000   70.096  0.84535 2038.000  278.486      0.00000
2039.000   70.237  0.84441 2039.000  278.803      0.00000
2040.000   70.377  0.84347 2040.000  279.120      0.00000
2041.000   70.518  0.84254 2041.000  279.437      0.00000
2042.000   70.660  0.84160 2042.000  279.755      0.00000
2043.000   70.802  0.84066 2043.000  280.074      0.00000
